[MyosystemBr1 Versão 3.5.61]
[Informações gerais]
	[Descrição geral] = 
	[Número de amostras por canal] = 50001.000000
	[Duração] = 25.000000 seg
	[Taxa de amostragem por canal] = 2000 Hz
	[Número de canais]  = 6
	[Canais utilizados] = 2	3	4	9	10	11	
[Informações sobre canais]
	[canal 1]
		Tipo de eletrodo = Passivo
		Descrição = 
		Unidade = uV
		Freqüência = 2000
		Filtro passa alta = 20.000000 Hz
		Filtro passa baixa = 500.000000 Hz
		Ganho do eletrodo = 20.000000
		Ganho do eletromiógrafo = 397.584015
		Tempo = 25.000000
	[canal 2]
		Tipo de eletrodo = Ativo
		Descrição = 
		Unidade = uV
		Freqüência = 2000
		Filtro passa alta = 20.000000 Hz
		Filtro passa baixa = 500.000000 Hz
		Ganho do eletrodo = 20.000000
		Ganho do eletromiógrafo = 397.583984
		Tempo = 25.000000
	[canal 3]
		Tipo de eletrodo = Ativo
		Descrição = 
		Unidade = uV
		Freqüência = 2000
		Filtro passa alta = 20.000000 Hz
		Filtro passa baixa = 500.000000 Hz
		Ganho do eletrodo = 20.000000
		Ganho do eletromiógrafo = 248.489990
		Tempo = 25.000000
	[canal 4]
		Tipo de eletrodo = Ativo
		Descrição = 
		Unidade = uV
		Freqüência = 2000
		Filtro passa alta = 20.000000 Hz
		Filtro passa baixa = 500.000000 Hz
		Ganho do eletrodo = 20.000000
		Ganho do eletromiógrafo = 397.583984
		Tempo = 25.000000
	[canal 5]
		Tipo de eletrodo = Passivo
		Descrição = 
		Unidade = uV
		Freqüência = 2000
		Filtro passa alta = 20.000000 Hz
		Filtro passa baixa = 1000.000000 Hz
		Ganho do eletrodo = 20.000000
		Ganho do eletromiógrafo = 397.584015
		Tempo = 25.000000
	[canal 6]
		Tipo de eletrodo = Passivo
		Descrição = 
		Unidade = uV
		Freqüência = 2000
		Filtro passa alta = 20.000000 Hz
		Filtro passa baixa = 1000.000000 Hz
		Ganho do eletrodo = 20.000000
		Ganho do eletromiógrafo = 397.584015
		Tempo = 25.000000
	[canal 7]
		Tipo de eletrodo = Passivo
		Descrição = 
		Unidade = uV
		Freqüência = 2000
		Filtro passa alta = 20.000000 Hz
		Filtro passa baixa = 1000.000000 Hz
		Ganho do eletrodo = 20.000000
		Ganho do eletromiógrafo = 397.584015
		Tempo = 25.000000
	[canal 8]
		Tipo de eletrodo = Passivo
		Descrição = 
		Unidade = uV
		Freqüência = 2000
		Filtro passa alta = 20.000000 Hz
		Filtro passa baixa = 1000.000000 Hz
		Ganho do eletrodo = 20.000000
		Ganho do eletromiógrafo = 397.584015
		Tempo = 25.000000
	[canal 9]
		Fonte de sinal auxiliar = Entrada em volts
		Descrição = 
		Unidade = V
		Freqüência = 2000
		Filtro passa alta = 0.000000 Hz
		Filtro passa baixa = 100000.000000 Hz
		Ganho do eletrodo = 1.000000
		Ganho do eletromiógrafo = 1.000000
		Tempo = 25.000000
	[canal 10]
		Fonte de sinal auxiliar = Entrada em volts
		Descrição = 
		Unidade = V
		Freqüência = 2000
		Filtro passa alta = 0.000000 Hz
		Filtro passa baixa = 100000.000000 Hz
		Ganho do eletrodo = 1.000000
		Ganho do eletromiógrafo = 1.000000
		Tempo = 25.000000
	[canal 11]
		Fonte de sinal auxiliar = Entrada em volts
		Descrição = 
		Unidade = V
		Freqüência = 2000
		Filtro passa alta = 0.000000 Hz
		Filtro passa baixa = 100000.000000 Hz
		Ganho do eletrodo = 1.000000
		Ganho do eletromiógrafo = 1.000000
		Tempo = 25.000000
	[canal 12]
		Fonte de sinal auxiliar = Entrada em volts
		Descrição = 
		Unidade = V
		Freqüência = 2000
		Filtro passa alta = 0.000000 Hz
		Filtro passa baixa = 100000.000000 Hz
		Ganho do eletrodo = 1.000000
		Ganho do eletromiógrafo = 1.000000
		Tempo = 25.000000
[Dados]
10.171895 	 7.917328 	 9.475883 	 0.812000 	 0.699000 	 0.679000 	  
 10.698513 	 7.917328 	 3.856001 	 0.814688 	 0.700187 	 0.677250 	  
 16.782134 	 7.401714 	 4.437639 	 0.811875 	 0.700625 	 0.679188 	  
 24.972227 	 6.999283 	 2.221126 	 0.814625 	 0.699375 	 0.677063 	  
 26.937221 	 6.219574 	 3.690942 	 0.812000 	 0.701187 	 0.679250 	  
 24.453469 	 5.364408 	 4.822778 	 0.813188 	 0.699500 	 0.677125 	  
 23.360932 	 4.987130 	 2.590545 	 0.812500 	 0.701500 	 0.679188 	  
 19.501685 	 4.433787 	 0.515512 	 0.812937 	 0.699375 	 0.677000 	  
 12.121169 	 3.012704 	 -3.037197 	 0.814000 	 0.701125 	 0.678750 	  
 6.092568 	 2.861792 	 -1.881780 	 0.812250 	 0.699438 	 0.677438 	  
 8.898579 	 4.094236 	 -2.801397 	 0.815000 	 0.701125 	 0.677625 	  
 12.915026 	 5.288953 	 1.898867 	 0.811937 	 0.699063 	 0.678813 	  
 15.948976 	 5.125465 	 0.939951 	 0.814562 	 0.700813 	 0.677375 	  
 13.457364 	 5.062585 	 2.582685 	 0.812063 	 0.699000 	 0.679000 	  
 7.342304 	 5.930327 	 -3.162956 	 0.814750 	 0.700063 	 0.677250 	  
 0.268327 	 7.200498 	 -1.229402 	 0.811937 	 0.699125 	 0.679000 	  
 -0.549110 	 6.043510 	 3.777401 	 0.814875 	 0.699875 	 0.677063 	  
 5.550230 	 5.414712 	 2.519805 	 0.811875 	 0.700125 	 0.679125 	  
 10.321235 	 5.402136 	 5.097877 	 0.814625 	 0.699375 	 0.677125 	  
 9.275858 	 4.785914 	 1.922447 	 0.812000 	 0.701000 	 0.679000 	  
 6.061128 	 4.546971 	 0.374032 	 0.814750 	 0.699313 	 0.677125 	  
 0.983585 	 5.615928 	 0.869211 	 0.812000 	 0.701063 	 0.679250 	  
 -4.251158 	 5.465016 	 0.641272 	 0.813625 	 0.699438 	 0.676937 	  
 -2.584844 	 4.823642 	 1.183610 	 0.812500 	 0.701313 	 0.679125 	  
 3.758156 	 6.081238 	 0.201113 	 0.812750 	 0.699438 	 0.677125 	  
 8.434841 	 7.728689 	 1.961747 	 0.813875 	 0.701250 	 0.678813 	  
 6.446267 	 7.716113 	 0.735591 	 0.812562 	 0.698937 	 0.677000 	  
 1.863902 	 7.225650 	 -0.199746 	 0.814500 	 0.700875 	 0.678188 	  
 -4.369058 	 7.615505 	 3.942461 	 0.811937 	 0.699000 	 0.677500 	  
 -9.100763 	 7.741265 	 3.014984 	 0.814750 	 0.700688 	 0.677625 	  
 -7.025729 	 8.344911 	 2.590545 	 0.811875 	 0.698937 	 0.678875 	  
 0.276187 	 7.942480 	 1.686648 	 0.814625 	 0.700875 	 0.677250 	  
 3.286557 	 8.483246 	 3.463002 	 0.811937 	 0.699000 	 0.679000 	  
 2.280481 	 7.741265 	 2.268286 	 0.814625 	 0.699937 	 0.677188 	  
 0.205447 	 6.873523 	 3.305803 	 0.811750 	 0.699688 	 0.679125 	  
 -2.474804 	 5.465016 	 2.920664 	 0.814813 	 0.699562 	 0.677000 	  
 -2.875663 	 5.276377 	 1.553029 	 0.812063 	 0.700750 	 0.679188 	  
 1.117204 	 5.880023 	 2.684865 	 0.814688 	 0.699625 	 0.677125 	  
 6.611327 	 6.898675 	 2.511945 	 0.812063 	 0.701313 	 0.679188 	  
 9.323018 	 6.471093 	 2.936384 	 0.813750 	 0.699625 	 0.677000 	  
 10.698513 	 5.527896 	 3.455142 	 0.812188 	 0.701375 	 0.679250 	  
 8.136162 	 3.779838 	 3.345103 	 0.812813 	 0.699562 	 0.677000 	  
 6.037548 	 2.107235 	 4.374759 	 0.814063 	 0.701125 	 0.678625 	  
 8.419121 	 2.522242 	 5.915314 	 0.812438 	 0.699313 	 0.677063 	  
 15.956836 	 3.767262 	 3.903161 	 0.814750 	 0.701375 	 0.678063 	  
 20.947920 	 4.408635 	 2.559105 	 0.812000 	 0.699313 	 0.677687 	  
 21.891117 	 4.370908 	 4.272580 	 0.814625 	 0.700937 	 0.677750 	  
 19.761064 	 4.534395 	 6.434073 	 0.811875 	 0.699125 	 0.678875 	  
 12.922886 	 4.320604 	 6.072514 	 0.814750 	 0.700875 	 0.677312 	  
 6.902146 	 5.540472 	 4.885658 	 0.811937 	 0.699000 	 0.679063 	  
 7.381604 	 6.508821 	 5.577336 	 0.814750 	 0.700500 	 0.677250 	  
 13.087946 	 7.426866 	 4.469079 	 0.812000 	 0.699250 	 0.679063 	  
 18.369849 	 6.710036 	 2.810625 	 0.814750 	 0.700125 	 0.677125 	  
 18.259809 	 6.408213 	 4.052500 	 0.811813 	 0.699875 	 0.679125 	  
 14.880020 	 6.898675 	 3.612342 	 0.815000 	 0.699500 	 0.677125 	  
 9.283718 	 7.225650 	 1.183610 	 0.812000 	 0.700813 	 0.679250 	  
 1.848182 	 5.854871 	 2.983544 	 0.814625 	 0.699187 	 0.677125 	  
 0.472686 	 4.295452 	 5.876015 	 0.812063 	 0.700813 	 0.679125 	  
 4.394814 	 4.949402 	 7.927468 	 0.813375 	 0.698875 	 0.677063 	  
 8.041842 	 7.125043 	 4.877798 	 0.812250 	 0.700625 	 0.679250 	  
 9.511657 	 8.558702 	 2.346886 	 0.813125 	 0.698750 	 0.677063 	  
 9.370178 	 9.602507 	 5.200057 	 0.813250 	 0.700625 	 0.679000 	  
 6.517007 	 9.816298 	 2.669145 	 0.812250 	 0.698750 	 0.677125 	  
 4.269054 	 9.363563 	 3.038564 	 0.814688 	 0.700813 	 0.678188 	  
 6.933586 	 8.634158 	 1.073570 	 0.812125 	 0.698750 	 0.677375 	  
 10.336955 	 7.590353 	 1.144310 	 0.814500 	 0.700500 	 0.677750 	  
 10.109015 	 6.571700 	 -1.441622 	 0.811937 	 0.698937 	 0.678875 	  
 8.764960 	 6.194422 	 0.712011 	 0.814750 	 0.700313 	 0.677000 	  
 7.585963 	 6.936403 	 4.178260 	 0.811688 	 0.699125 	 0.679125 	  
 5.220111 	 6.420789 	 4.476939 	 0.814688 	 0.699562 	 0.677125 	  
 5.518790 	 6.936403 	 3.612342 	 0.812063 	 0.700750 	 0.679125 	  
 11.201552 	 7.590353 	 3.730242 	 0.814750 	 0.699063 	 0.677125 	  
 17.717471 	 6.672308 	 2.213266 	 0.811937 	 0.700813 	 0.679063 	  
 19.360205 	 5.213497 	 4.657719 	 0.813500 	 0.699000 	 0.677063 	  
 19.399505 	 4.924250 	 2.166107 	 0.812312 	 0.700813 	 0.679250 	  
 15.021499 	 6.081238 	 8.532686 	 0.812813 	 0.699000 	 0.677125 	  
 10.014696 	 8.269455 	 4.563399 	 0.813750 	 0.700875 	 0.678875 	  
 9.676717 	 8.030512 	 6.229713 	 0.812500 	 0.698813 	 0.677000 	  
 16.051156 	 6.194422 	 5.593055 	 0.814625 	 0.700688 	 0.678188 	  
 20.240522 	 6.458517 	 2.653425 	 0.812000 	 0.698875 	 0.677875 	  
 19.501685 	 6.496245 	 5.034997 	 0.814750 	 0.700688 	 0.677563 	  
 16.098316 	 6.106390 	 4.948538 	 0.811875 	 0.698688 	 0.678937 	  
 11.217272 	 5.729111 	 3.148603 	 0.814625 	 0.700750 	 0.677375 	  
 5.133651 	 7.074739 	 4.516239 	 0.811937 	 0.698937 	 0.679000 	  
 3.082198 	 6.810644 	 6.937111 	 0.814688 	 0.699937 	 0.677188 	  
 8.576320 	 7.099891 	 4.901378 	 0.811813 	 0.699125 	 0.679125 	  
 14.196202 	 7.275954 	 5.137177 	 0.814813 	 0.699313 	 0.677063 	  
 14.243362 	 7.967632 	 4.406199 	 0.811750 	 0.700438 	 0.679063 	  
 9.040059 	 7.049587 	 4.744178 	 0.814625 	 0.699313 	 0.677250 	  
 3.813176 	 5.490168 	 4.681298 	 0.811875 	 0.700688 	 0.679312 	  
 0.881405 	 4.496667 	 5.255077 	 0.814562 	 0.698813 	 0.677063 	  
 3.789596 	 5.527896 	 5.184337 	 0.811813 	 0.700688 	 0.679312 	  
 9.252278 	 7.804144 	 5.380836 	 0.813188 	 0.699000 	 0.677063 	  
 10.753533 	 9.703114 	 6.992131 	 0.812937 	 0.700500 	 0.679125 	  
 10.399834 	 9.891754 	 4.579119 	 0.812813 	 0.698813 	 0.677063 	  
 9.488077 	 9.816298 	 4.288300 	 0.813688 	 0.700688 	 0.678813 	  
 4.308354 	 10.897830 	 5.954614 	 0.812375 	 0.698688 	 0.676937 	  
 1.698842 	 12.193154 	 1.049990 	 0.814438 	 0.700688 	 0.678188 	  
 6.517007 	 10.709191 	 -0.899283 	 0.812000 	 0.698625 	 0.677625 	  
 11.594550 	 8.835373 	 -3.524515 	 0.814813 	 0.700688 	 0.677563 	  
 10.989332 	 7.841872 	 0.798471 	 0.811875 	 0.698625 	 0.679063 	  
 8.953599 	 8.571278 	 -1.653841 	 0.814750 	 0.700063 	 0.677188 	  
 4.088275 	 9.464171 	 -0.356945 	 0.812063 	 0.699438 	 0.679063 	  
 -0.894949 	 8.634158 	 1.105010 	 0.814813 	 0.699313 	 0.677250 	  
 -0.431211 	 7.301106 	 1.639488 	 0.811875 	 0.700937 	 0.679188 	  
 7.240125 	 6.596852 	 2.449066 	 0.814750 	 0.699438 	 0.677000 	  
 14.549901 	 7.804144 	 -1.135083 	 0.812125 	 0.700937 	 0.679188 	  
 16.569914 	 7.540049 	 2.048207 	 0.812937 	 0.698688 	 0.677063 	  
 15.626717 	 6.622004 	 4.846358 	 0.813750 	 0.700625 	 0.678875 	  
 11.688870 	 6.131542 	 4.657719 	 0.812312 	 0.698875 	 0.677125 	  
 6.540587 	 6.005782 	 3.187903 	 0.814562 	 0.700875 	 0.677937 	  
 5.707430 	 6.320181 	 4.311880 	 0.812000 	 0.698937 	 0.678625 	  
 10.234775 	 6.118966 	 4.193980 	 0.814750 	 0.700875 	 0.677438 	  
 14.101882 	 6.307605 	 1.741668 	 0.811813 	 0.698937 	 0.679188 	  
 15.335898 	 5.892599 	 1.883148 	 0.814750 	 0.700813 	 0.677312 	  
 14.573481 	 7.942480 	 3.093584 	 0.811937 	 0.699250 	 0.679188 	  
 10.431274 	 10.872679 	 2.425486 	 0.814688 	 0.699313 	 0.677125 	  
 5.628830 	 11.161926 	 7.133611 	 0.811875 	 0.700688 	 0.679125 	  
 6.053268 	 7.452018 	 10.670599 	 0.814750 	 0.699125 	 0.677000 	  
 9.920376 	 6.068662 	 10.434800 	 0.812000 	 0.700875 	 0.679250 	  
 13.056506 	 6.659732 	 4.579119 	 0.814375 	 0.699250 	 0.677250 	  
 12.954326 	 6.634580 	 -2.031120 	 0.812000 	 0.701000 	 0.679125 	  
 8.230481 	 4.961978 	 2.834204 	 0.813188 	 0.699000 	 0.677125 	  
 1.408023 	 4.496667 	 5.404416 	 0.813438 	 0.701125 	 0.679000 	  
 -0.753470 	 6.974131 	 8.619146 	 0.812500 	 0.699187 	 0.676937 	  
 5.848909 	 10.105545 	 8.013928 	 0.814562 	 0.701063 	 0.678063 	  
 12.797127 	 10.998438 	 6.339753 	 0.812063 	 0.699250 	 0.677250 	  
 14.958620 	 10.243881 	 5.034997 	 0.814813 	 0.701125 	 0.678000 	  
 12.003269 	 10.520552 	 1.977467 	 0.811937 	 0.699063 	 0.678000 	  
 8.269781 	 8.973709 	 2.063927 	 0.814562 	 0.701000 	 0.677500 	  
 2.783519 	 6.873523 	 2.040347 	 0.811813 	 0.699125 	 0.679000 	  
 -0.250431 	 4.534395 	 1.207190 	 0.814688 	 0.699750 	 0.677000 	  
 3.459477 	 2.346178 	 0.389752 	 0.811750 	 0.699562 	 0.679125 	  
 8.120442 	 -0.143862 	 5.561616 	 0.814750 	 0.699562 	 0.677063 	  
 11.036492 	 -0.382805 	 0.719871 	 0.812000 	 0.700688 	 0.679125 	  
 11.012912 	 1.365253 	 3.290083 	 0.813438 	 0.699000 	 0.677125 	  
 9.150098 	 3.402559 	 4.909238 	 0.812625 	 0.701125 	 0.679188 	  
 4.764233 	 4.748186 	 7.078591 	 0.812937 	 0.699063 	 0.677063 	  
 4.795672 	 4.924250 	 4.579119 	 0.814250 	 0.701250 	 0.678687 	  
 10.722093 	 4.936826 	 5.616635 	 0.812063 	 0.699438 	 0.677438 	  
 16.758554 	 4.622427 	 5.302236 	 0.814875 	 0.701438 	 0.677750 	  
 17.937550 	 4.723034 	 3.871721 	 0.812000 	 0.699562 	 0.678625 	  
 13.740324 	 4.308028 	 2.897084 	 0.814750 	 0.701438 	 0.677375 	  
 6.006109 	 4.245148 	 1.560889 	 0.812000 	 0.699250 	 0.679125 	  
 0.574866 	 4.370908 	 -0.333365 	 0.814750 	 0.700438 	 0.677125 	  
 3.561656 	 5.703959 	 1.576609 	 0.811937 	 0.699937 	 0.679375 	  
 11.130812 	 6.672308 	 1.678788 	 0.814813 	 0.699813 	 0.677188 	  
 15.202279 	 7.967632 	 3.305803 	 0.811875 	 0.700875 	 0.679250 	  
 14.172622 	 9.325836 	 3.596622 	 0.814250 	 0.699187 	 0.677250 	  
 12.522027 	 11.589508 	 1.812408 	 0.811875 	 0.701063 	 0.679250 	  
 9.267998 	 12.759072 	 2.802765 	 0.813250 	 0.699125 	 0.677063 	  
 7.059345 	 11.476325 	 3.580902 	 0.812875 	 0.701125 	 0.679250 	  
 9.873216 	 9.904330 	 2.519805 	 0.812500 	 0.699187 	 0.677000 	  
 16.106176 	 9.212652 	 3.054284 	 0.814875 	 0.701187 	 0.678188 	  
 17.072953 	 9.011437 	 -0.427685 	 0.812063 	 0.699187 	 0.677687 	  
 14.408421 	 8.583854 	 3.903161 	 0.814750 	 0.701000 	 0.677687 	  
 10.109015 	 9.024013 	 5.137177 	 0.812188 	 0.699187 	 0.678937 	  
 6.587747 	 10.269032 	 3.997481 	 0.814688 	 0.700750 	 0.677312 	  
 5.495210 	 11.664964 	 6.386913 	 0.811875 	 0.699063 	 0.679125 	  
 9.181538 	 10.570856 	 6.669872 	 0.814937 	 0.699688 	 0.677063 	  
 14.180482 	 8.382639 	 5.624495 	 0.811875 	 0.699438 	 0.679125 	  
 15.186559 	 7.062163 	 4.830638 	 0.814688 	 0.699562 	 0.677188 	  
 11.531671 	 8.143695 	 6.662012 	 0.811750 	 0.700438 	 0.679063 	  
 4.622753 	 8.344911 	 5.490876 	 0.814750 	 0.698937 	 0.677063 	  
 -0.635570 	 7.942480 	 4.146820 	 0.811750 	 0.700625 	 0.679125 	  
 0.150428 	 7.238226 	 5.027137 	 0.814125 	 0.698937 	 0.677063 	  
 7.892502 	 7.238226 	 5.027137 	 0.811875 	 0.700625 	 0.679125 	  
 14.156902 	 7.527473 	 7.172910 	 0.812875 	 0.698813 	 0.677063 	  
 15.131539 	 7.917328 	 1.049990 	 0.813562 	 0.701063 	 0.678875 	  
 11.460931 	 7.250802 	 -2.204039 	 0.812562 	 0.699187 	 0.676937 	  
 6.265488 	 5.955478 	 -1.323722 	 0.814625 	 0.701063 	 0.678125 	  
 1.455183 	 5.276377 	 -1.276562 	 0.812125 	 0.699250 	 0.678063 	  
 3.003598 	 4.270300 	 -2.266919 	 0.814813 	 0.701000 	 0.677438 	  
 9.535237 	 3.628926 	 -1.858200 	 0.811875 	 0.698875 	 0.679188 	  
 14.652081 	 2.874368 	 -0.097566 	 0.814813 	 0.700125 	 0.677312 	  
 14.887880 	 2.811489 	 4.421919 	 0.812125 	 0.699750 	 0.679063 	  
 14.117602 	 3.301951 	 5.978194 	 0.814813 	 0.699625 	 0.677125 	  
 10.619914 	 4.018781 	 6.096094 	 0.811875 	 0.701250 	 0.679312 	  
 5.833189 	 3.742110 	 8.163267 	 0.814750 	 0.699500 	 0.677000 	  
 7.609543 	 2.710881 	 -0.812824 	 0.811937 	 0.701438 	 0.679188 	  
 12.042569 	 1.805412 	 -1.378742 	 0.813063 	 0.699125 	 0.677188 	  
 13.850363 	 4.056509 	 1.301509 	 0.814000 	 0.701063 	 0.678687 	  
 15.115819 	 7.150195 	 2.488366 	 0.812375 	 0.699063 	 0.677063 	  
 14.447721 	 8.370063 	 2.166107 	 0.814625 	 0.700875 	 0.678000 	  
 8.552740 	 7.288530 	 1.049990 	 0.812000 	 0.699187 	 0.678000 	  
 3.207958 	 5.339256 	 4.461219 	 0.814875 	 0.701063 	 0.677438 	  
 5.597390 	 5.276377 	 5.027137 	 0.811937 	 0.699250 	 0.679125 	  
 11.413771 	 5.452440 	 6.103954 	 0.814813 	 0.700125 	 0.677188 	  
 13.598844 	 5.942903 	 7.432290 	 0.812125 	 0.699500 	 0.679125 	  
 11.618130 	 7.250802 	 10.442660 	 0.814750 	 0.699562 	 0.677125 	  
 6.854986 	 9.401291 	 9.688102 	 0.811937 	 0.700063 	 0.679188 	  
 1.423743 	 9.866602 	 8.744905 	 0.814875 	 0.699438 	 0.677000 	  
 0.362647 	 10.105545 	 3.769541 	 0.811875 	 0.700750 	 0.679000 	  
 3.860335 	 9.677962 	 4.956398 	 0.814375 	 0.699187 	 0.677188 	  
 8.159742 	 8.609006 	 -1.032903 	 0.812125 	 0.700625 	 0.679188 	  
 9.849636 	 8.948557 	 -0.105426 	 0.813125 	 0.699063 	 0.677000 	  
 10.863573 	 11.099046 	 0.987110 	 0.813688 	 0.700875 	 0.679000 	  
 7.499504 	 11.979363 	 1.694508 	 0.812125 	 0.698813 	 0.677312 	  
 2.665619 	 10.218729 	 4.854218 	 0.814813 	 0.700937 	 0.677687 	  
 1.785302 	 9.464171 	 1.490149 	 0.811875 	 0.699125 	 0.678875 	  
 8.851419 	 10.193577 	 3.352963 	 0.814688 	 0.701125 	 0.677312 	  
 14.227642 	 11.979363 	 2.708445 	 0.812063 	 0.699187 	 0.679000 	  
 13.025066 	 11.388293 	 1.301509 	 0.814813 	 0.700125 	 0.677188 	  
 8.521300 	 8.646734 	 2.653425 	 0.812063 	 0.699688 	 0.679188 	  
 3.420177 	 6.408213 	 2.983544 	 0.815063 	 0.699375 	 0.677063 	  
 -0.619850 	 7.275954 	 1.065710 	 0.811937 	 0.700937 	 0.679250 	  
 1.604523 	 7.288530 	 4.822778 	 0.814000 	 0.699125 	 0.677063 	  
 8.694220 	 6.169270 	 5.058577 	 0.812375 	 0.700937 	 0.679188 	  
 12.239068 	 5.251225 	 7.259370 	 0.812813 	 0.698937 	 0.677063 	  
 11.295871 	 5.452440 	 4.854218 	 0.814312 	 0.701125 	 0.678687 	  
 6.949305 	 5.414712 	 5.522316 	 0.812312 	 0.699313 	 0.677188 	  
 2.602740 	 5.087737 	 3.407983 	 0.814750 	 0.700937 	 0.677875 	  
 1.227244 	 4.484091 	 3.525882 	 0.812000 	 0.699063 	 0.678813 	  
 5.754589 	 2.798913 	 3.675222 	 0.814875 	 0.700375 	 0.677312 	  
 10.329095 	 3.427711 	 5.530176 	 0.811875 	 0.698813 	 0.679063 	  
 12.490588 	 4.094236 	 5.365116 	 0.814750 	 0.699688 	 0.677250 	  
 13.960403 	 6.546549 	 7.047151 	 0.812000 	 0.699500 	 0.679125 	  
 11.673150 	 8.080816 	 2.920664 	 0.814937 	 0.699438 	 0.677063 	  
 6.619187 	 7.426866 	 3.690942 	 0.811813 	 0.700625 	 0.679188 	  
 5.888209 	 6.307605 	 1.277929 	 0.814750 	 0.699313 	 0.677063 	  
 11.177972 	 7.112467 	 2.173967 	 0.812000 	 0.700750 	 0.679125 	  
 14.424141 	 7.137619 	 -0.066126 	 0.813375 	 0.698813 	 0.677125 	  
 16.161196 	 7.238226 	 1.812408 	 0.812125 	 0.700750 	 0.679312 	  
 16.043296 	 7.804144 	 3.871721 	 0.812937 	 0.698937 	 0.677000 	  
 11.924669 	 8.131119 	 3.958181 	 0.813562 	 0.700813 	 0.679000 	  
 5.227971 	 6.559125 	 4.610559 	 0.812125 	 0.699000 	 0.677250 	  
 3.726716 	 4.635003 	 5.915314 	 0.814813 	 0.700813 	 0.678000 	  
 7.562384 	 5.880023 	 4.594839 	 0.812063 	 0.698750 	 0.677625 	  
 10.761393 	 7.125043 	 6.009634 	 0.814625 	 0.700813 	 0.677750 	  
 9.063639 	 7.967632 	 2.071787 	 0.811937 	 0.698688 	 0.678750 	  
 7.570243 	 8.407791 	 1.419409 	 0.814813 	 0.700562 	 0.677250 	  
 4.214034 	 10.105545 	 0.460492 	 0.811688 	 0.698750 	 0.679125 	  
 -0.085372 	 9.564779 	 0.476212 	 0.814875 	 0.699500 	 0.677125 	  
 -0.171831 	 7.992784 	 1.191470 	 0.811937 	 0.699937 	 0.679125 	  
 4.630613 	 7.452018 	 4.586979 	 0.814688 	 0.699250 	 0.677188 	  
 8.497720 	 8.231727 	 3.903161 	 0.811813 	 0.701000 	 0.679188 	  
 8.442701 	 8.772493 	 5.868155 	 0.814375 	 0.699000 	 0.677125 	  
 6.367667 	 9.439019 	 0.924231 	 0.812000 	 0.701187 	 0.679250 	  
 4.512713 	 9.237804 	 4.830638 	 0.813125 	 0.699063 	 0.677188 	  
 5.668130 	 8.495822 	 3.533742 	 0.814000 	 0.700750 	 0.678937 	  
 10.887153 	 7.250802 	 4.115380 	 0.812250 	 0.699000 	 0.677312 	  
 16.829294 	 6.546549 	 5.247217 	 0.814750 	 0.700875 	 0.677937 	  
 19.147986 	 7.816720 	 4.217560 	 0.812250 	 0.699125 	 0.678500 	  
 18.110469 	 7.414290 	 2.669145 	 0.814688 	 0.701063 	 0.677625 	  
 14.054722 	 7.275954 	 5.231497 	 0.811875 	 0.699187 	 0.679125 	  
 11.453071 	 7.753841 	 -0.254766 	 0.814937 	 0.700688 	 0.677375 	  
 11.523811 	 8.910829 	 -2.652058 	 0.811937 	 0.699063 	 0.679125 	  
 14.549901 	 8.495822 	 -1.811041 	 0.814813 	 0.700063 	 0.677188 	  
 18.354129 	 7.577777 	 2.126807 	 0.812000 	 0.699813 	 0.679125 	  
 19.855384 	 7.376562 	 4.335460 	 0.814875 	 0.699438 	 0.677000 	  
 17.426652 	 7.892176 	 4.359039 	 0.811813 	 0.700937 	 0.679312 	  
 11.288011 	 7.225650 	 1.254350 	 0.814688 	 0.699562 	 0.677125 	  
 6.265488 	 5.880023 	 4.508379 	 0.811937 	 0.700937 	 0.679250 	  
 4.363374 	 5.590776 	 6.371193 	 0.813688 	 0.699187 	 0.677125 	  
 7.232265 	 7.514897 	 4.437639 	 0.812250 	 0.701000 	 0.679250 	  
 10.376254 	 8.370063 	 3.486582 	 0.813188 	 0.699125 	 0.677000 	  
 13.410205 	 7.766417 	 2.842064 	 0.812937 	 0.700813 	 0.679312 	  
 13.308025 	 7.703537 	 1.505869 	 0.812688 	 0.699000 	 0.677250 	  
 7.240125 	 6.835796 	 3.258643 	 0.814688 	 0.701000 	 0.678125 	  
 1.266544 	 5.905175 	 4.288300 	 0.812063 	 0.699000 	 0.677563 	  
 3.836756 	 5.175769 	 2.291866 	 0.814688 	 0.701063 	 0.677937 	  
 11.508091 	 5.678807 	 3.588762 	 0.812063 	 0.698937 	 0.678375 	  
 16.569914 	 5.615928 	 2.441206 	 0.814688 	 0.700750 	 0.677500 	  
 15.288738 	 5.590776 	 0.546952 	 0.811813 	 0.699000 	 0.679188 	  
 10.022556 	 5.477592 	 1.175750 	 0.814813 	 0.700063 	 0.677125 	  
 4.614893 	 5.678807 	 2.904944 	 0.811875 	 0.699000 	 0.679063 	  
 2.563440 	 5.955478 	 2.024627 	 0.814625 	 0.699562 	 0.677125 	  
 6.972885 	 7.200498 	 3.329383 	 0.811813 	 0.700187 	 0.679125 	  
 10.541314 	 6.320181 	 -1.166523 	 0.814875 	 0.699250 	 0.677125 	  
 9.393758 	 4.458939 	 0.098933 	 0.811750 	 0.700875 	 0.679250 	  
 5.951089 	 2.471938 	 2.228986 	 0.813438 	 0.699063 	 0.677125 	  
 4.528433 	 0.610696 	 0.790611 	 0.812813 	 0.701063 	 0.679063 	  
 2.814959 	 -0.169014 	 2.040347 	 0.812750 	 0.699250 	 0.677250 	  
 2.940718 	 0.560392 	 3.070004 	 0.814625 	 0.701187 	 0.678125 	  
 8.324801 	 1.742532 	 4.162540 	 0.812250 	 0.699187 	 0.677687 	  
 14.353402 	 3.352255 	 2.794905 	 0.814688 	 0.701000 	 0.677750 	  
 14.848580 	 5.163193 	 4.154680 	 0.811937 	 0.699250 	 0.678875 	  
 11.901089 	 4.924250 	 3.376543 	 0.814750 	 0.700937 	 0.677438 	  
 6.847126 	 5.213497 	 5.231497 	 0.811875 	 0.699063 	 0.679188 	  
 2.390520 	 5.993206 	 2.677005 	 0.814750 	 0.700562 	 0.677375 	  
 3.145078 	 7.540049 	 7.369410 	 0.811937 	 0.699313 	 0.679125 	  
 10.038275 	 9.011437 	 8.768485 	 0.814750 	 0.699625 	 0.677125 	  
 15.359478 	 11.199653 	 6.693452 	 0.811625 	 0.700750 	 0.679312 	  
 17.214432 	 12.872256 	 5.883875 	 0.814875 	 0.699688 	 0.677125 	  
 15.618857 	 12.708769 	 7.306530 	 0.811875 	 0.701250 	 0.679125 	  
 9.598117 	 11.061318 	 3.879581 	 0.814688 	 0.699625 	 0.677312 	  
 4.709213 	 10.445096 	 4.288300 	 0.811875 	 0.701250 	 0.679188 	  
 5.911789 	 10.294184 	 4.343320 	 0.814500 	 0.699438 	 0.677063 	  
 9.983256 	 9.740842 	 2.763465 	 0.811937 	 0.701250 	 0.679312 	  
 10.533454 	 9.262956 	 3.706662 	 0.813562 	 0.699813 	 0.677188 	  
 10.431274 	 9.904330 	 1.332949 	 0.812562 	 0.701187 	 0.679125 	  
 9.480217 	 11.061318 	 -2.447698 	 0.812625 	 0.699313 	 0.677125 	  
 6.210468 	 10.319336 	 -3.178676 	 0.814375 	 0.701187 	 0.678438 	  
 2.579160 	 8.759917 	 -3.595255 	 0.812250 	 0.699375 	 0.677312 	  
 4.198314 	 8.118543 	 -3.618835 	 0.814750 	 0.701125 	 0.677687 	  
 7.279424 	 8.256879 	 -1.260842 	 0.811813 	 0.699313 	 0.679000 	  
 8.002542 	 6.835796 	 0.900651 	 0.814750 	 0.701000 	 0.677250 	  
 5.683850 	 6.269877 	 0.586252 	 0.811937 	 0.699313 	 0.679063 	  
 3.262977 	 5.565624 	 2.716305 	 0.814688 	 0.700063 	 0.677188 	  
 0.716346 	 5.024857 	 4.594839 	 0.811813 	 0.700562 	 0.679125 	  
 -0.211131 	 6.043510 	 2.645565 	 0.814813 	 0.699562 	 0.677063 	  
 7.200825 	 8.747341 	 2.810625 	 0.811688 	 0.701375 	 0.679250 	  
 15.186559 	 9.313260 	 -0.191886 	 0.813438 	 0.699562 	 0.677125 	  
 18.039730 	 8.458094 	 -2.675638 	 0.813500 	 0.701625 	 0.679063 	  
 13.048646 	 6.508821 	 -0.411965 	 0.812438 	 0.699250 	 0.677188 	  
 6.619187 	 5.238649 	 1.152170 	 0.814750 	 0.701125 	 0.677875 	  
 1.683123 	 4.308028 	 2.386186 	 0.812000 	 0.699125 	 0.678937 	  
 2.264761 	 2.547393 	 5.286516 	 0.814813 	 0.700375 	 0.677312 	  
 7.051485 	 2.559969 	 6.339753 	 0.811875 	 0.699750 	 0.679312 	  
 12.545607 	 3.050432 	 6.811352 	 0.814937 	 0.699562 	 0.677125 	  
 16.538474 	 4.433787 	 7.542329 	 0.811813 	 0.701187 	 0.679250 	  
 14.832860 	 5.150617 	 10.505540 	 0.814250 	 0.699438 	 0.677125 	  
 10.179755 	 5.515320 	 7.652369 	 0.811937 	 0.701125 	 0.679188 	  
 5.251551 	 6.030934 	 10.442660 	 0.813312 	 0.699375 	 0.677063 	  
 5.620970 	 6.295029 	 10.136121 	 0.812500 	 0.701187 	 0.679250 	  
 12.639927 	 5.766839 	 7.746689 	 0.812813 	 0.699250 	 0.677063 	  
 17.874670 	 6.206998 	 4.665579 	 0.814688 	 0.700937 	 0.678063 	  
 15.705317 	 6.559125 	 3.463002 	 0.811937 	 0.699063 	 0.678000 	  
 10.022556 	 5.842295 	 2.834204 	 0.814688 	 0.701500 	 0.677750 	  
 4.088275 	 5.012282 	 4.351180 	 0.812063 	 0.699750 	 0.679000 	  
 -1.146468 	 4.710458 	 4.901378 	 0.814688 	 0.701063 	 0.677375 	  
 0.912845 	 5.439864 	 5.105737 	 0.812000 	 0.700000 	 0.679188 	  
 9.071499 	 6.169270 	 4.076080 	 0.814813 	 0.700250 	 0.677188 	  
 15.202279 	 6.408213 	 2.236846 	 0.811813 	 0.701000 	 0.679312 	  
 15.532398 	 6.244726 	 5.538036 	 0.814750 	 0.699562 	 0.677125 	  
 11.248712 	 5.766839 	 4.657719 	 0.812000 	 0.701125 	 0.679125 	  
 5.613110 	 5.465016 	 6.371193 	 0.813438 	 0.699063 	 0.677188 	  
 3.121498 	 5.766839 	 4.673438 	 0.812250 	 0.701125 	 0.679250 	  
 5.935369 	 5.641079 	 2.213266 	 0.812688 	 0.699250 	 0.677063 	  
 10.053995 	 4.446363 	 3.690942 	 0.814625 	 0.701000 	 0.678188 	  
 11.602410 	 4.308028 	 3.643782 	 0.811875 	 0.699250 	 0.678125 	  
 10.847853 	 5.502744 	 4.681298 	 0.814750 	 0.701063 	 0.677438 	  
 8.033982 	 7.263378 	 6.567692 	 0.811813 	 0.699125 	 0.679063 	  
 5.031472 	 7.137619 	 5.412276 	 0.814625 	 0.699750 	 0.677188 	  
 5.023612 	 6.420789 	 4.288300 	 0.811937 	 0.700063 	 0.679188 	  
 9.275858 	 5.439864 	 5.372976 	 0.814875 	 0.699500 	 0.677125 	  
 13.433785 	 6.269877 	 7.172910 	 0.811813 	 0.701313 	 0.679500 	  
 14.714960 	 6.420789 	 5.286516 	 0.814250 	 0.699313 	 0.677125 	  
 13.756043 	 5.012282 	 3.879581 	 0.812688 	 0.701438 	 0.679125 	  
 10.195475 	 5.050009 	 7.337970 	 0.812562 	 0.699250 	 0.677188 	  
 6.493427 	 5.666231 	 3.887441 	 0.814375 	 0.701500 	 0.678625 	  
 7.444484 	 5.817143 	 7.675949 	 0.812438 	 0.699688 	 0.677250 	  
 12.922886 	 6.697460 	 2.645565 	 0.814750 	 0.701688 	 0.677875 	  
 16.522755 	 8.571278 	 8.139687 	 0.811937 	 0.699625 	 0.678937 	  
 16.279095 	 9.225228 	 5.899595 	 0.814875 	 0.701187 	 0.677312 	  
 13.913243 	 8.910829 	 1.230770 	 0.811875 	 0.699313 	 0.679250 	  
 10.234775 	 8.508398 	 0.609832 	 0.814688 	 0.700500 	 0.677250 	  
 7.130085 	 9.288108 	 5.027137 	 0.812125 	 0.700187 	 0.679250 	  
 8.089002 	 8.986285 	 1.773108 	 0.814750 	 0.699813 	 0.677188 	  
 13.237285 	 9.200076 	 4.288300 	 0.811688 	 0.700875 	 0.679312 	  
 15.485238 	 9.162348 	 2.008907 	 0.814813 	 0.699625 	 0.677063 	  
 13.575264 	 9.187500 	 0.932091 	 0.812000 	 0.701125 	 0.679250 	  
 10.368394 	 9.690538 	 -0.993603 	 0.813625 	 0.699250 	 0.677125 	  
 7.082925 	 10.080393 	 1.482289 	 0.813250 	 0.701375 	 0.679063 	  
 3.734576 	 10.168425 	 1.120730 	 0.812500 	 0.699187 	 0.677063 	  
 4.622753 	 9.489323 	 3.250783 	 0.814688 	 0.701063 	 0.678000 	  
 7.185105 	 8.483246 	 3.030704 	 0.811937 	 0.699625 	 0.678500 	  
 11.044352 	 6.433365 	 5.616635 	 0.814937 	 0.701187 	 0.677563 	  
 11.688870 	 5.288953 	 5.435856 	 0.811813 	 0.699375 	 0.679125 	  
 7.758883 	 5.062585 	 0.374032 	 0.814625 	 0.700875 	 0.677312 	  
 2.382660 	 7.137619 	 -2.997897 	 0.812000 	 0.699500 	 0.679188 	  
 0.684906 	 9.577355 	 -0.639904 	 0.814750 	 0.699875 	 0.677188 	  
 5.526650 	 9.929482 	 1.010690 	 0.811750 	 0.700875 	 0.679250 	  
 9.904656 	 8.256879 	 3.651642 	 0.814688 	 0.699313 	 0.677125 	  
 11.861790 	 7.867024 	 -1.025043 	 0.811875 	 0.700813 	 0.679312 	  
 8.812119 	 8.294607 	 0.130373 	 0.813625 	 0.698937 	 0.677188 	  
 4.269054 	 8.055664 	 1.820268 	 0.812750 	 0.701000 	 0.679188 	  
 -0.344751 	 7.728689 	 6.795632 	 0.812375 	 0.698875 	 0.677063 	  
 -0.014632 	 9.086892 	 9.271524 	 0.814562 	 0.701438 	 0.678188 	  
 6.799966 	 11.991939 	 7.078591 	 0.812125 	 0.699438 	 0.677937 	  
 14.094022 	 11.526628 	 2.008907 	 0.814813 	 0.701500 	 0.677687 	  
 14.086162 	 9.074316 	 1.914587 	 0.812000 	 0.699562 	 0.678875 	  
 9.637417 	 8.583854 	 1.780968 	 0.814813 	 0.701375 	 0.677375 	  
 4.834972 	 9.652810 	 2.268286 	 0.812063 	 0.699500 	 0.679125 	  
 4.064695 	 9.275532 	 0.122513 	 0.814813 	 0.700313 	 0.677188 	  
 7.939662 	 8.546126 	 -1.873920 	 0.811875 	 0.701063 	 0.679250 	  
 14.880020 	 8.294607 	 -4.797831 	 0.815000 	 0.699688 	 0.677000 	  
 17.968990 	 8.558702 	 -0.647764 	 0.811875 	 0.701187 	 0.679312 	  
 15.147259 	 8.168847 	 4.083940 	 0.813063 	 0.699187 	 0.677125 	  
 12.537747 	 8.873101 	 3.250783 	 0.813375 	 0.701187 	 0.679063 	  
 7.892502 	 11.388293 	 4.854218 	 0.812312 	 0.699125 	 0.677188 	  
 4.764233 	 11.363141 	 3.258643 	 0.814688 	 0.701187 	 0.678000 	  
 7.499504 	 9.074316 	 4.146820 	 0.812063 	 0.698937 	 0.678500 	  
 13.363045 	 6.936403 	 6.182554 	 0.814813 	 0.701187 	 0.677563 	  
 16.208356 	 6.974131 	 4.697018 	 0.811813 	 0.699313 	 0.679188 	  
 15.045079 	 7.414290 	 4.516239 	 0.814750 	 0.701187 	 0.677375 	  
 11.107232 	 8.395215 	 3.533742 	 0.811937 	 0.699500 	 0.679125 	  
 6.037548 	 7.464594 	 4.170400 	 0.814625 	 0.700000 	 0.677250 	  
 2.948578 	 5.968054 	 5.978194 	 0.812000 	 0.700750 	 0.679250 	  
 6.477707 	 4.018781 	 6.599132 	 0.814937 	 0.699562 	 0.677063 	  
 12.584907 	 1.918596 	 3.643782 	 0.811937 	 0.701375 	 0.679312 	  
 15.650297 	 2.358754 	 2.126807 	 0.813438 	 0.699250 	 0.677063 	  
 13.873943 	 3.855293 	 1.348669 	 0.812375 	 0.700688 	 0.679188 	  
 7.027905 	 3.226495 	 0.845631 	 0.812875 	 0.699187 	 0.677188 	  
 0.244747 	 2.798913 	 1.891007 	 0.814375 	 0.701187 	 0.678438 	  
 -2.624144 	 2.698305 	 1.482289 	 0.812000 	 0.699063 	 0.677625 	  
 2.469120 	 2.974976 	 5.522316 	 0.814750 	 0.700750 	 0.677687 	  
 6.988605 	 4.333180 	 5.082157 	 0.811813 	 0.698875 	 0.679188 	  
 7.656703 	 5.993206 	 4.249000 	 0.814750 	 0.699750 	 0.677063 	  
 6.517007 	 6.345333 	 5.970334 	 0.811875 	 0.699000 	 0.679125 	  
 3.255117 	 5.590776 	 2.700585 	 0.814750 	 0.699375 	 0.677125 	  
 0.944285 	 4.773338 	 0.782751 	 0.811813 	 0.700937 	 0.679188 	  
 3.522357 	 4.597275 	 5.876015 	 0.813937 	 0.698875 	 0.677188 	  
 8.764960 	 5.150617 	 5.545896 	 0.812438 	 0.701125 	 0.679375 	  
 11.791050 	 4.559547 	 7.707389 	 0.812813 	 0.699125 	 0.677125 	  
 10.588474 	 3.440287 	 6.968551 	 0.814688 	 0.701187 	 0.678312 	  
 7.601683 	 3.553470 	 5.954614 	 0.812063 	 0.699250 	 0.677875 	  
 4.536293 	 3.666654 	 7.055011 	 0.814750 	 0.701375 	 0.677563 	  
 2.445540 	 3.528318 	 5.357256 	 0.812063 	 0.699125 	 0.679000 	  
 6.037548 	 2.673153 	 1.843848 	 0.814688 	 0.700438 	 0.677375 	  
 13.583124 	 2.522242 	 -1.205822 	 0.811937 	 0.699375 	 0.679188 	  
 17.308752 	 2.761185 	 -2.801397 	 0.814875 	 0.699438 	 0.677125 	  
 15.555978 	 3.943325 	 -2.259059 	 0.811813 	 0.700875 	 0.679375 	  
 11.075792 	 5.050009 	 0.499792 	 0.813375 	 0.699313 	 0.677125 	  
 7.460204 	 6.232150 	 4.539819 	 0.812813 	 0.701250 	 0.679188 	  
 7.232265 	 6.810644 	 5.923174 	 0.812625 	 0.699125 	 0.677188 	  
 14.337682 	 7.527473 	 3.007124 	 0.814063 	 0.701000 	 0.678625 	  
 18.943627 	 7.741265 	 6.685592 	 0.812125 	 0.699250 	 0.677375 	  
 18.527048 	 6.269877 	 6.331893 	 0.814875 	 0.701125 	 0.677625 	  
 14.243362 	 6.307605 	 6.520532 	 0.812000 	 0.699375 	 0.679250 	  
 9.763176 	 7.628081 	 4.500519 	 0.814875 	 0.700875 	 0.677188 	  
 4.874272 	 8.206575 	 7.361550 	 0.812063 	 0.699500 	 0.679188 	  
 4.795672 	 7.426866 	 6.756332 	 0.814813 	 0.700250 	 0.677375 	  
 11.201552 	 8.181423 	 6.489093 	 0.811937 	 0.700250 	 0.679125 	  
 15.147259 	 9.024013 	 5.365116 	 0.814875 	 0.699500 	 0.677125 	  
 14.251222 	 8.797645 	 4.225420 	 0.811813 	 0.701187 	 0.679188 	  
 10.226915 	 8.684462 	 1.859568 	 0.813562 	 0.699125 	 0.676937 	  
 5.526650 	 10.696615 	 2.897084 	 0.812375 	 0.701187 	 0.679188 	  
 2.382660 	 12.168002 	 0.617692 	 0.812562 	 0.699500 	 0.677188 	  
 3.207958 	 10.243881 	 5.758115 	 0.814500 	 0.701500 	 0.678188 	  
 7.876782 	 9.212652 	 5.530176 	 0.812063 	 0.699688 	 0.677750 	  
 12.781407 	 10.545704 	 2.889224 	 0.814625 	 0.701187 	 0.677563 	  
 11.170112 	 11.212229 	 3.030704 	 0.811813 	 0.699250 	 0.679188 	  
 8.537020 	 10.457672 	 4.288300 	 0.814813 	 0.700500 	 0.677125 	  
 5.007892 	 9.577355 	 1.694508 	 0.811875 	 0.699750 	 0.679125 	  
 1.926782 	 8.797645 	 1.285789 	 0.814688 	 0.699500 	 0.677250 	  
 5.078632 	 8.583854 	 3.007124 	 0.812063 	 0.701375 	 0.679312 	  
 11.382331 	 7.829296 	 1.112870 	 0.813688 	 0.699250 	 0.677063 	  
 13.213705 	 7.678385 	 0.798471 	 0.812375 	 0.701500 	 0.679438 	  
 12.325528 	 6.948979 	 0.704151 	 0.812688 	 0.699625 	 0.677063 	  
 10.627774 	 5.427288 	 3.203623 	 0.814813 	 0.701375 	 0.678188 	  
 5.848909 	 5.389560 	 4.586979 	 0.811875 	 0.699500 	 0.678438 	  
 4.080415 	 7.137619 	 1.788828 	 0.814813 	 0.701250 	 0.677375 	  
 10.761393 	 8.747341 	 4.586979 	 0.812000 	 0.699250 	 0.679188 	  
 17.898250 	 8.231727 	 4.193980 	 0.814688 	 0.700063 	 0.677438 	  
 19.871104 	 7.175347 	 5.380836 	 0.811875 	 0.699750 	 0.679188 	  
 17.214432 	 6.835796 	 2.975684 	 0.814937 	 0.699562 	 0.677125 	  
 12.034709 	 7.829296 	 2.983544 	 0.811813 	 0.700750 	 0.679312 	  
 6.713506 	 7.049587 	 1.160030 	 0.814250 	 0.699313 	 0.677188 	  
 6.579887 	 5.376984 	 5.490876 	 0.812125 	 0.701313 	 0.679188 	  
 12.781407 	 4.157116 	 5.765975 	 0.813000 	 0.699187 	 0.677125 	  
 18.291249 	 4.861370 	 2.606265 	 0.813562 	 0.701125 	 0.678937 	  
 16.624934 	 6.244726 	 4.728458 	 0.812438 	 0.699125 	 0.677000 	  
 12.545607 	 7.351410 	 4.830638 	 0.814688 	 0.701063 	 0.678000 	  
 7.617403 	 7.338834 	 5.223637 	 0.811937 	 0.699250 	 0.678438 	  
 4.339794 	 6.873523 	 2.967824 	 0.814875 	 0.701125 	 0.677438 	  
 5.448050 	 7.867024 	 1.584468 	 0.812000 	 0.699000 	 0.679250 	  
 10.690653 	 9.577355 	 0.067493 	 0.814813 	 0.700187 	 0.677250 	  
 14.667801 	 10.495400 	 0.829911 	 0.811937 	 0.699875 	 0.679188 	  
 12.875726 	 9.187500 	 2.527665 	 0.814750 	 0.699438 	 0.677188 	  
 8.717800 	 8.835373 	 2.708445 	 0.811688 	 0.701250 	 0.679375 	  
 2.736359 	 9.401291 	 2.511945 	 0.814063 	 0.699500 	 0.677063 	  
 -0.352611 	 8.458094 	 2.881364 	 0.812000 	 0.701063 	 0.679125 	  
 1.180084 	 6.357909 	 2.252566 	 0.812875 	 0.699187 	 0.677188 	  
 6.084708 	 6.194422 	 0.916371 	 0.813937 	 0.701187 	 0.678687 	  
 8.686360 	 6.068662 	 3.384403 	 0.812125 	 0.699562 	 0.677312 	  
 10.423414 	 7.200498 	 0.625552 	 0.814625 	 0.701313 	 0.677875 	  
 8.576320 	 9.174924 	 1.938167 	 0.811875 	 0.699375 	 0.678750 	  
 3.152938 	 8.847949 	 2.527665 	 0.814750 	 0.700750 	 0.677312 	  
 -1.083588 	 8.105968 	 1.977467 	 0.811875 	 0.699813 	 0.679312 	  
 0.912845 	 8.307183 	 4.846358 	 0.814750 	 0.700250 	 0.677250 	  
 6.933586 	 9.665386 	 2.692725 	 0.811937 	 0.701500 	 0.679188 	  
 12.097589 	 9.099468 	 4.343320 	 0.814438 	 0.699750 	 0.677250 	  
 12.121169 	 7.552625 	 3.942461 	 0.812063 	 0.701562 	 0.679375 	  
 7.523084 	 7.326258 	 4.060360 	 0.812813 	 0.699500 	 0.677188 	  
 4.088275 	 8.470670 	 2.606265 	 0.814438 	 0.701562 	 0.678438 	  
 5.361591 	 8.131119 	 2.472646 	 0.811937 	 0.699562 	 0.677875 	  
 10.659213 	 5.905175 	 2.952104 	 0.814688 	 0.701500 	 0.677750 	  
 15.438078 	 5.942903 	 6.261153 	 0.811937 	 0.699562 	 0.679063 	  
 17.968990 	 8.483246 	 4.555539 	 0.814750 	 0.701250 	 0.677375 	  
 16.499175 	 10.092969 	 2.834204 	 0.811875 	 0.700000 	 0.679250 	  
 9.841776 	 9.577355 	 4.327600 	 0.814750 	 0.700438 	 0.677125 	  
 4.583453 	 9.891754 	 2.967824 	 0.811813 	 0.701125 	 0.679250 	  
 4.945012 	 9.577355 	 4.681298 	 0.814688 	 0.700125 	 0.677125 	  
 12.592767 	 8.005360 	 5.003557 	 0.811875 	 0.701625 	 0.679250 	  
 18.417008 	 6.420789 	 2.181827 	 0.813063 	 0.699688 	 0.677188 	  
 18.448448 	 6.131542 	 3.195763 	 0.813000 	 0.701688 	 0.679250 	  
 14.699240 	 5.553048 	 1.946027 	 0.812375 	 0.699250 	 0.677125 	  
 8.544880 	 4.308028 	 4.272580 	 0.814625 	 0.701187 	 0.678000 	  
 1.172224 	 5.062585 	 1.238630 	 0.811813 	 0.699438 	 0.678687 	  
 0.394087 	 6.194422 	 2.637705 	 0.814750 	 0.701187 	 0.677438 	  
 5.251551 	 6.722612 	 3.046424 	 0.811875 	 0.699187 	 0.679375 	  
 7.515224 	 5.238649 	 2.488366 	 0.814625 	 0.699313 	 0.677250 	  
 4.787812 	 4.559547 	 2.959964 	 0.811813 	 0.700875 	 0.679250 	  
 0.834245 	 4.886522 	 4.013201 	 0.814375 	 0.699125 	 0.677188 	  
 -2.482664 	 6.219574 	 2.621985 	 0.811750 	 0.700750 	 0.679250 	  
 -3.197922 	 5.502744 	 5.593055 	 0.813063 	 0.698813 	 0.677188 	  
 2.178301 	 3.830141 	 7.628789 	 0.813500 	 0.700688 	 0.678937 	  
 7.711723 	 3.427711 	 2.441206 	 0.812063 	 0.699000 	 0.677250 	  
 8.592040 	 2.710881 	 2.346886 	 0.814562 	 0.701375 	 0.677813 	  
 6.171168 	 3.754686 	 0.594112 	 0.811875 	 0.699125 	 0.678937 	  
 4.190454 	 5.138041 	 4.885658 	 0.814625 	 0.700813 	 0.677375 	  
 3.498777 	 5.439864 	 4.555539 	 0.811813 	 0.699813 	 0.679312 	  
 4.795672 	 3.729534 	 7.833148 	 0.814813 	 0.699937 	 0.677063 	  
 9.433057 	 3.503166 	 6.434073 	 0.811813 	 0.700937 	 0.679375 	  
 14.597061 	 4.760762 	 7.738829 	 0.814063 	 0.699375 	 0.677125 	  
 15.972556 	 6.068662 	 6.371193 	 0.812000 	 0.701438 	 0.679375 	  
 14.086162 	 5.314105 	 1.097150 	 0.813063 	 0.699500 	 0.677250 	  
 8.890719 	 3.691806 	 0.043913 	 0.813750 	 0.701250 	 0.678937 	  
 3.789596 	 3.616350 	 -2.502718 	 0.812250 	 0.699375 	 0.677438 	  
 6.359807 	 3.754686 	 -2.628478 	 0.814688 	 0.701000 	 0.677687 	  
 13.551684 	 3.478014 	 -2.282639 	 0.811750 	 0.699250 	 0.679312 	  
 19.485965 	 1.591621 	 -4.373392 	 0.814625 	 0.700313 	 0.677312 	  
 21.419519 	 1.226918 	 2.904944 	 0.811750 	 0.700313 	 0.679250 	  
 18.747127 	 3.088160 	 4.594839 	 0.814625 	 0.699313 	 0.677250 	  
 13.064366 	 7.338834 	 5.255077 	 0.811813 	 0.701125 	 0.679312 	  
 8.419121 	 8.722190 	 5.545896 	 0.813188 	 0.699125 	 0.677125 	  
 10.651354 	 8.118543 	 5.679515 	 0.813438 	 0.700937 	 0.679125 	  
 16.805714 	 6.634580 	 5.655935 	 0.812188 	 0.699187 	 0.677125 	  
 19.470245 	 5.477592 	 5.207917 	 0.814688 	 0.701063 	 0.678063 	  
 17.324472 	 6.106390 	 8.006068 	 0.811813 	 0.699313 	 0.678687 	  
 13.025066 	 7.125043 	 6.567692 	 0.814625 	 0.701500 	 0.677438 	  
 5.770309 	 7.879600 	 6.292593 	 0.811875 	 0.699375 	 0.679063 	  
 1.683123 	 6.282453 	 6.127534 	 0.814625 	 0.700000 	 0.677312 	  
 6.587747 	 5.628504 	 11.535196 	 0.811625 	 0.700562 	 0.679312 	  
 13.237285 	 6.898675 	 8.902105 	 0.814750 	 0.699438 	 0.677063 	  
 14.557761 	 8.759917 	 6.756332 	 0.811750 	 0.701250 	 0.679250 	  
 12.294088 	 10.331912 	 7.919608 	 0.813438 	 0.699187 	 0.677188 	  
 7.460204 	 10.319336 	 5.640215 	 0.812000 	 0.700875 	 0.679250 	  
 -0.698450 	 8.282031 	 4.241140 	 0.812438 	 0.699000 	 0.676937 	  
 -3.433721 	 8.646734 	 6.041074 	 0.814250 	 0.701000 	 0.678438 	  
 1.274404 	 10.118121 	 5.294376 	 0.811937 	 0.699125 	 0.677312 	  
 7.122225 	 10.181001 	 5.097877 	 0.814500 	 0.700875 	 0.677750 	  
 8.953599 	 11.526628 	 5.970334 	 0.811562 	 0.699313 	 0.679000 	  
 9.605977 	 13.123775 	 -0.191886 	 0.814562 	 0.700625 	 0.677312 	  
 7.027905 	 12.708769 	 1.529449 	 0.811813 	 0.699438 	 0.679188 	  
 1.651683 	 10.344488 	 4.154680 	 0.814625 	 0.699937 	 0.677312 	  
 0.739926 	 8.709614 	 4.634139 	 0.811813 	 0.701500 	 0.679188 	  
 7.923942 	 7.615505 	 -1.142943 	 0.814250 	 0.699875 	 0.677125 	  
 15.225859 	 8.332335 	 1.993187 	 0.811813 	 0.701500 	 0.679500 	  
 15.312318 	 8.722190 	 2.449066 	 0.813000 	 0.699625 	 0.677312 	  
 12.930746 	 7.917328 	 1.537309 	 0.813375 	 0.701313 	 0.679000 	  
 7.861063 	 6.357909 	 -1.174383 	 0.812125 	 0.699438 	 0.677375 	  
 2.972158 	 5.817143 	 0.877071 	 0.814438 	 0.701562 	 0.678000 	  
 3.891775 	 6.345333 	 1.183610 	 0.811813 	 0.699688 	 0.678875 	  
 10.942173 	 5.817143 	 0.240413 	 0.814625 	 0.701250 	 0.677438 	  
 15.862517 	 6.408213 	 0.319013 	 0.811688 	 0.699438 	 0.679312 	  
 16.286955 	 7.741265 	 1.215050 	 0.814562 	 0.699937 	 0.677188 	  
 12.278368 	 7.967632 	 3.062144 	 0.811750 	 0.700625 	 0.679188 	  
 8.026122 	 7.150195 	 -0.474845 	 0.814500 	 0.699313 	 0.677250 	  
 5.966809 	 7.414290 	 2.991404 	 0.811750 	 0.700625 	 0.679312 	  
 8.434841 	 8.080816 	 1.993187 	 0.813125 	 0.698875 	 0.677063 	  
 13.465224 	 8.847949 	 4.649859 	 0.812875 	 0.701063 	 0.679250 	  
 15.084379 	 8.219151 	 0.908511 	 0.812312 	 0.699438 	 0.677063 	  
 14.094022 	 7.414290 	 2.126807 	 0.814562 	 0.701375 	 0.678125 	  
 10.085435 	 7.477170 	 4.618419 	 0.811750 	 0.699250 	 0.678312 	  
 3.962515 	 7.703537 	 3.604482 	 0.814562 	 0.701000 	 0.677563 	  
 0.567006 	 8.420366 	 5.231497 	 0.811937 	 0.699313 	 0.679125 	  
 5.762449 	 9.262956 	 2.103227 	 0.814562 	 0.700125 	 0.677250 	  
 11.681010 	 9.740842 	 3.785261 	 0.811625 	 0.699750 	 0.679375 	  
 11.421631 	 8.357487 	 3.187903 	 0.814688 	 0.699750 	 0.677125 	  
 8.623480 	 8.382639 	 1.977467 	 0.811688 	 0.700813 	 0.679188 	  
 4.756373 	 9.791146 	 3.651642 	 0.814438 	 0.699250 	 0.677188 	  
 2.131141 	 11.337989 	 2.134667 	 0.811688 	 0.701000 	 0.679250 	  
 4.151155 	 10.269032 	 2.959964 	 0.813625 	 0.699063 	 0.677188 	  
 10.368394 	 7.766417 	 -0.608464 	 0.812125 	 0.700937 	 0.679375 	  
 14.675660 	 5.766839 	 3.447282 	 0.812125 	 0.699000 	 0.677125 	  
 14.762120 	 4.572123 	 4.799198 	 0.814500 	 0.701063 	 0.678000 	  
 11.012912 	 4.609851 	 3.415843 	 0.811813 	 0.699187 	 0.678375 	  
 6.289068 	 4.685307 	 1.553029 	 0.814625 	 0.701250 	 0.677500 	  
 3.404457 	 4.999706 	 -1.252982 	 0.811875 	 0.699562 	 0.679125 	  
 5.990389 	 4.961978 	 2.857784 	 0.814688 	 0.700063 	 0.677375 	  
 14.730680 	 5.288953 	 2.307586 	 0.811750 	 0.700875 	 0.679250 	  
 21.490258 	 6.282453 	 3.895301 	 0.814688 	 0.699375 	 0.677063 	  
 20.696401 	 8.105968 	 5.600915 	 0.811562 	 0.701125 	 0.679438 	  
 15.422358 	 8.520974 	 7.707389 	 0.813750 	 0.699688 	 0.677312 	  
 12.136889 	 8.017936 	 4.634139 	 0.812063 	 0.701438 	 0.679312 	  
 9.173678 	 9.074316 	 7.675949 	 0.813125 	 0.699438 	 0.677250 	  
 9.818196 	 10.092969 	 9.499463 	 0.812500 	 0.701625 	 0.679312 	  
 13.897523 	 10.269032 	 4.311880 	 0.812500 	 0.699438 	 0.677250 	  
 17.528831 	 9.677962 	 2.700585 	 0.814438 	 0.701375 	 0.678250 	  
 16.632794 	 9.162348 	 2.103227 	 0.811813 	 0.699187 	 0.677625 	  
 13.496664 	 7.980208 	 1.042130 	 0.814562 	 0.701375 	 0.677687 	  
 8.309081 	 8.168847 	 -1.818901 	 0.811750 	 0.699187 	 0.679000 	  
 5.220111 	 8.256879 	 -4.184753 	 0.814438 	 0.700813 	 0.677500 	  
 6.839266 	 7.162771 	 -3.029337 	 0.811875 	 0.699313 	 0.679188 	  
 12.239068 	 5.288953 	 -1.205822 	 0.814688 	 0.699750 	 0.677250 	  
 14.754260 	 5.012282 	 0.248273 	 0.811688 	 0.701000 	 0.679312 	  
 10.470574 	 4.559547 	 3.266503 	 0.814562 	 0.699500 	 0.677188 	  
 2.461260 	 4.282876 	 6.001774 	 0.811937 	 0.701000 	 0.679375 	  
 -4.203998 	 3.817565 	 4.013201 	 0.813250 	 0.699063 	 0.677250 	  
 -1.641647 	 4.308028 	 2.928524 	 0.812312 	 0.701125 	 0.679438 	  
 7.633123 	 5.691383 	 5.042857 	 0.812438 	 0.699000 	 0.677125 	  
 13.111526 	 5.314105 	 7.801708 	 0.814562 	 0.701000 	 0.678250 	  
 10.839993 	 3.641502 	 5.773835 	 0.811875 	 0.699000 	 0.677438 	  
 7.420904 	 4.396060 	 6.960691 	 0.814625 	 0.701063 	 0.677875 	  
 1.997522 	 6.169270 	 5.090017 	 0.811750 	 0.698875 	 0.678937 	  
 -4.612717 	 5.515320 	 6.213993 	 0.814562 	 0.700187 	 0.677250 	  
 -5.186495 	 4.006205 	 7.550189 	 0.811750 	 0.699187 	 0.679125 	  
 3.160798 	 3.591198 	 3.958181 	 0.814688 	 0.698937 	 0.677188 	  
 10.753533 	 4.345756 	 3.062144 	 0.811688 	 0.700625 	 0.679438 	  
 11.343031 	 4.848794 	 4.767758 	 0.814625 	 0.699375 	 0.677250 	  
 7.381604 	 5.012282 	 5.019277 	 0.812000 	 0.701375 	 0.679250 	  
 2.587020 	 4.936826 	 3.675222 	 0.813188 	 0.699562 	 0.677312 	  
 -1.641647 	 3.176191 	 3.486582 	 0.813688 	 0.701438 	 0.679063 	  
 -0.108952 	 2.321026 	 5.357256 	 0.812438 	 0.699500 	 0.677125 	  
 8.332661 	 2.924672 	 3.132883 	 0.814688 	 0.701750 	 0.678188 	  
 13.418065 	 2.283298 	 -0.160446 	 0.812000 	 0.700063 	 0.678500 	  
 11.225132 	 -0.181590 	 1.238630 	 0.814750 	 0.701750 	 0.677438 	  
 6.524867 	 0.862215 	 2.071787 	 0.811813 	 0.700000 	 0.679312 	  
 3.585236 	 3.754686 	 0.955671 	 0.814688 	 0.700438 	 0.677250 	  
 4.921432 	 4.987130 	 2.857784 	 0.812000 	 0.700500 	 0.679312 	  
 10.423414 	 4.370908 	 1.851708 	 0.814750 	 0.700125 	 0.677250 	  
 15.493098 	 4.333180 	 4.091800 	 0.811750 	 0.701562 	 0.679312 	  
 15.595278 	 5.213497 	 4.083940 	 0.813438 	 0.699500 	 0.677125 	  
 13.968263 	 6.357909 	 5.820995 	 0.812188 	 0.701250 	 0.679375 	  
 9.535237 	 6.999283 	 5.695235 	 0.812875 	 0.699375 	 0.677250 	  
 4.669913 	 5.829719 	 4.830638 	 0.813625 	 0.701125 	 0.679000 	  
 4.151155 	 4.396060 	 2.016767 	 0.812125 	 0.699187 	 0.677375 	  
 10.313375 	 2.861792 	 2.606265 	 0.814688 	 0.701625 	 0.678000 	  
 16.546334 	 2.886944 	 1.537309 	 0.811937 	 0.699688 	 0.678813 	  
 19.478105 	 4.094236 	 3.235063 	 0.814750 	 0.701500 	 0.677438 	  
 17.214432 	 6.144118 	 4.704878 	 0.811937 	 0.699937 	 0.679250 	  
 9.936096 	 7.816720 	 5.986054 	 0.814562 	 0.700438 	 0.677250 	  
 2.437680 	 9.615083 	 3.423703 	 0.812000 	 0.700187 	 0.679312 	  
 2.689199 	 9.237804 	 3.832421 	 0.814688 	 0.700000 	 0.677312 	  
 10.698513 	 7.552625 	 5.349396 	 0.811813 	 0.701438 	 0.679312 	  
 17.010073 	 7.665809 	 5.593055 	 0.814000 	 0.699750 	 0.677000 	  
 16.711394 	 10.042665 	 5.710955 	 0.811937 	 0.701250 	 0.679312 	  
 10.321235 	 11.337989 	 3.651642 	 0.812937 	 0.699562 	 0.677188 	  
 4.080415 	 11.614660 	 4.170400 	 0.813625 	 0.701375 	 0.678937 	  
 0.158287 	 11.325413 	 4.524099 	 0.812250 	 0.698875 	 0.677188 	  
 2.382660 	 9.791146 	 5.058577 	 0.814625 	 0.701313 	 0.678063 	  
 7.334444 	 8.759917 	 2.684865 	 0.812000 	 0.699500 	 0.677813 	  
 9.865356 	 9.916906 	 4.586979 	 0.814688 	 0.701250 	 0.677750 	  
 9.220838 	 11.161926 	 1.749528 	 0.811750 	 0.699562 	 0.679250 	  
 6.611327 	 10.281608 	 5.813135 	 0.814813 	 0.701000 	 0.677375 	  
 2.775659 	 9.904330 	 3.596622 	 0.812000 	 0.699875 	 0.679250 	  
 0.456967 	 9.451595 	 7.165050 	 0.814875 	 0.700375 	 0.677375 	  
 4.882132 	 8.709614 	 2.684865 	 0.811937 	 0.701500 	 0.679500 	  
 12.081869 	 8.847949 	 2.323306 	 0.814875 	 0.700187 	 0.677188 	  
 17.348052 	 11.124198 	 0.649132 	 0.811813 	 0.701500 	 0.679438 	  
 18.354129 	 12.784224 	 0.036053 	 0.813500 	 0.699875 	 0.677250 	  
 14.974340 	 13.174079 	 -0.294065 	 0.812438 	 0.701375 	 0.679312 	  
 9.338738 	 11.564356 	 0.971390 	 0.812562 	 0.699250 	 0.677188 	  
 7.350164 	 9.401291 	 -0.333365 	 0.814562 	 0.701688 	 0.678312 	  
 13.284445 	 8.923405 	 3.463002 	 0.812063 	 0.699625 	 0.677687 	  
 19.030086 	 9.426443 	 6.143254 	 0.814750 	 0.701250 	 0.677875 	  
 18.762847 	 10.357064 	 6.103954 	 0.811875 	 0.699625 	 0.678687 	  
 14.243362 	 10.055241 	 1.694508 	 0.814750 	 0.701500 	 0.677563 	  
 7.444484 	 9.778570 	 -0.694924 	 0.812000 	 0.699688 	 0.679063 	  
 1.989662 	 9.665386 	 -0.404105 	 0.814750 	 0.700313 	 0.677375 	  
 4.481273 	 10.344488 	 4.256860 	 0.812000 	 0.700562 	 0.679375 	  
 12.608487 	 10.533128 	 3.667362 	 0.814813 	 0.699688 	 0.677125 	  
 15.328038 	 10.772071 	 1.993187 	 0.811937 	 0.701187 	 0.679500 	  
 13.425925 	 11.363141 	 3.997481 	 0.813688 	 0.699875 	 0.677063 	  
 11.492371 	 11.337989 	 1.427269 	 0.812000 	 0.701625 	 0.679375 	  
 7.491644 	 9.577355 	 2.708445 	 0.813000 	 0.699625 	 0.677188 	  
 3.027178 	 8.068240 	 2.999264 	 0.814063 	 0.701562 	 0.678687 	  
 3.695276 	 9.539627 	 4.311880 	 0.812312 	 0.699500 	 0.677438 	  
 10.800693 	 10.168425 	 5.097877 	 0.814688 	 0.701063 	 0.677937 	  
 15.430218 	 9.539627 	 4.453359 	 0.811813 	 0.699375 	 0.678875 	  
 14.534181 	 8.948557 	 5.467296 	 0.814937 	 0.701250 	 0.677500 	  
 10.148315 	 8.810221 	 5.278657 	 0.812000 	 0.699625 	 0.679188 	  
 4.441974 	 7.137619 	 3.022844 	 0.814625 	 0.700625 	 0.677312 	  
 0.960005 	 6.244726 	 3.140743 	 0.811875 	 0.699750 	 0.679250 	  
 3.766016 	 5.087737 	 4.083940 	 0.814813 	 0.699937 	 0.677125 	  
 9.087219 	 3.641502 	 2.284006 	 0.811875 	 0.701125 	 0.679375 	  
 10.635634 	 2.119811 	 2.724165 	 0.814438 	 0.699438 	 0.677188 	  
 9.480217 	 1.855716 	 3.557322 	 0.812063 	 0.701562 	 0.679312 	  
 8.026122 	 1.729956 	 3.918881 	 0.813250 	 0.699500 	 0.677250 	  
 6.941446 	 1.994051 	 4.775618 	 0.813438 	 0.701562 	 0.679250 	  
 6.760666 	 2.484514 	 5.569476 	 0.812688 	 0.699688 	 0.677188 	  
 11.052212 	 2.698305 	 7.495169 	 0.814750 	 0.701500 	 0.678000 	  
 14.125462 	 3.452863 	 6.441933 	 0.812000 	 0.699500 	 0.678625 	  
 16.412715 	 3.943325 	 4.767758 	 0.815000 	 0.701750 	 0.677750 	  
 16.114036 	 3.981053 	 6.316173 	 0.812000 	 0.699438 	 0.679375 	  
 12.349108 	 2.786337 	 9.169344 	 0.814875 	 0.700688 	 0.677438 	  
 7.106505 	 2.094659 	 7.888168 	 0.812125 	 0.699875 	 0.679250 	  
 8.426981 	 3.754686 	 4.720598 	 0.814875 	 0.700250 	 0.677375 	  
 14.227642 	 6.232150 	 7.204350 	 0.812000 	 0.700500 	 0.679375 	  
 16.066876 	 6.181846 	 5.907454 	 0.815063 	 0.699875 	 0.677250 	  
 15.532398 	 5.465016 	 3.730242 	 0.812000 	 0.701187 	 0.679312 	  
 14.282662 	 4.685307 	 1.395829 	 0.814688 	 0.699688 	 0.677312 	  
 9.550957 	 4.458939 	 -1.410182 	 0.812063 	 0.701438 	 0.679312 	  
 2.728499 	 4.546971 	 -0.875704 	 0.813625 	 0.699500 	 0.677188 	  
 1.738142 	 4.848794 	 0.043913 	 0.812562 	 0.701250 	 0.679438 	  
 5.589530 	 3.377407 	 -2.966457 	 0.812875 	 0.699750 	 0.677312 	  
 7.845343 	 0.987975 	 -1.622401 	 0.814750 	 0.701125 	 0.678250 	  
 5.078632 	 0.422056 	 -2.982177 	 0.812000 	 0.699500 	 0.678375 	  
 2.178301 	 -0.370229 	 -0.011106 	 0.814750 	 0.701375 	 0.677563 	  
 -0.643430 	 0.258569 	 3.219343 	 0.812125 	 0.699562 	 0.679250 	  
 -1.366548 	 2.232995 	 5.797415 	 0.814688 	 0.700562 	 0.677375 	  
 2.909279 	 5.465016 	 3.612342 	 0.812000 	 0.700187 	 0.679375 	  
 8.018262 	 7.099891 	 4.712738 	 0.814875 	 0.700000 	 0.677125 	  
 8.906439 	 8.219151 	 2.755605 	 0.811813 	 0.700875 	 0.679375 	  
 8.953599 	 8.973709 	 -0.742084 	 0.814750 	 0.699500 	 0.677125 	  
 7.782463 	 9.791146 	 0.696291 	 0.812000 	 0.701313 	 0.679250 	  
 2.807099 	 9.200076 	 2.645565 	 0.813188 	 0.699500 	 0.677250 	  
 1.195804 	 8.634158 	 2.967824 	 0.813000 	 0.701250 	 0.679188 	  
 6.391247 	 8.910829 	 3.376543 	 0.812312 	 0.699187 	 0.677125 	  
 12.105449 	 8.885677 	 4.099660 	 0.814875 	 0.701250 	 0.678000 	  
 13.622424 	 9.615083 	 1.875288 	 0.812125 	 0.699875 	 0.679000 	  
 12.074009 	 10.193577 	 4.319740 	 0.814937 	 0.701625 	 0.677438 	  
 7.845343 	 10.067817 	 3.007124 	 0.812125 	 0.699688 	 0.679250 	  
 3.443757 	 8.734765 	 1.403689 	 0.814875 	 0.700562 	 0.677375 	  
 3.341577 	 8.634158 	 0.727731 	 0.812063 	 0.700750 	 0.679250 	  
 9.904656 	 7.502321 	 3.596622 	 0.815063 	 0.699688 	 0.677125 	  
 16.286955 	 6.320181 	 5.223637 	 0.812063 	 0.701438 	 0.679500 	  
 17.968990 	 6.433365 	 8.013928 	 0.813625 	 0.699750 	 0.677312 	  
 16.310535 	 6.144118 	 7.243650 	 0.812500 	 0.701313 	 0.679438 	  
 11.594550 	 5.905175 	 6.048934 	 0.813063 	 0.699500 	 0.677250 	  
 7.711723 	 7.213074 	 5.388696 	 0.814000 	 0.701438 	 0.678937 	  
 8.874999 	 9.765994 	 6.764192 	 0.812562 	 0.699438 	 0.677312 	  
 14.754260 	 9.489323 	 8.029648 	 0.814750 	 0.701438 	 0.678000 	  
 17.835370 	 8.948557 	 6.614852 	 0.812000 	 0.699562 	 0.678563 	  
 18.157629 	 9.715690 	 4.673438 	 0.815000 	 0.701625 	 0.677563 	  
 14.714960 	 9.841450 	 2.236846 	 0.812188 	 0.699750 	 0.679250 	  
 6.296928 	 7.653233 	 4.131100 	 0.814813 	 0.700875 	 0.677375 	  
 0.622026 	 6.911251 	 5.530176 	 0.812000 	 0.699937 	 0.679438 	  
 5.031472 	 7.049587 	 6.064654 	 0.815063 	 0.700375 	 0.677312 	  
 12.812847 	 8.344911 	 7.385130 	 0.811937 	 0.700500 	 0.679375 	  
 14.628501 	 8.759917 	 7.487309 	 0.814875 	 0.700063 	 0.677250 	  
 13.095806 	 8.759917 	 3.934601 	 0.812125 	 0.701813 	 0.679312 	  
 10.109015 	 9.350987 	 3.722382 	 0.814688 	 0.699937 	 0.677312 	  
 5.793889 	 10.369640 	 1.474429 	 0.811875 	 0.701562 	 0.679375 	  
 2.799239 	 10.608583 	 1.977467 	 0.813750 	 0.699562 	 0.677063 	  
 6.194748 	 10.558280 	 1.985327 	 0.812500 	 0.701500 	 0.679312 	  
 11.264432 	 10.105545 	 0.751311 	 0.812562 	 0.699688 	 0.677250 	  
 13.127245 	 9.577355 	 0.342592 	 0.814688 	 0.701438 	 0.678375 	  
 9.700297 	 9.388715 	 2.637705 	 0.812125 	 0.699438 	 0.677438 	  
 2.579160 	 7.011859 	 2.252566 	 0.814625 	 0.701250 	 0.678000 	  
 -3.842440 	 4.559547 	 2.118947 	 0.812063 	 0.699375 	 0.679000 	  
 -3.119322 	 2.509666 	 2.346886 	 0.814875 	 0.700875 	 0.677312 	  
 4.449834 	 2.974976 	 0.892791 	 0.811937 	 0.699625 	 0.679375 	  
 10.792833 	 4.031357 	 4.343320 	 0.814937 	 0.700313 	 0.677312 	  
 11.665290 	 5.653655 	 5.027137 	 0.812125 	 0.701000 	 0.679312 	  
 11.028632 	 5.138041 	 2.881364 	 0.815000 	 0.700000 	 0.677438 	  
 9.150098 	 4.182268 	 0.601972 	 0.812000 	 0.701688 	 0.679438 	  
 3.821036 	 4.056509 	 0.908511 	 0.813562 	 0.699500 	 0.677188 	  
 2.917139 	 4.987130 	 -1.009323 	 0.812750 	 0.701438 	 0.679438 	  
 10.281935 	 5.301529 	 2.527665 	 0.812562 	 0.699438 	 0.677312 	  
 16.475595 	 5.691383 	 1.458709 	 0.815063 	 0.701125 	 0.678125 	  
 15.202279 	 5.842295 	 5.129317 	 0.812188 	 0.699313 	 0.677937 	  
 11.806770 	 5.389560 	 1.112870 	 0.814813 	 0.701562 	 0.677750 	  
 7.578103 	 6.684884 	 -1.087923 	 0.812188 	 0.699500 	 0.679188 	  
 4.355514 	 7.728689 	 0.656991 	 0.814875 	 0.700750 	 0.677375 	  
 5.966809 	 7.628081 	 5.962474 	 0.811937 	 0.699875 	 0.679375 	  
 11.083652 	 6.395637 	 8.092527 	 0.815063 	 0.700500 	 0.677188 	  
 14.487021 	 7.540049 	 9.939621 	 0.812063 	 0.700375 	 0.679375 	  
 16.271235 	 10.042665 	 1.891007 	 0.814875 	 0.699813 	 0.677375 	  
 15.815357 	 11.765572 	 -1.881780 	 0.812063 	 0.701125 	 0.679312 	  
 11.177972 	 10.382216 	 -3.021477 	 0.814688 	 0.699313 	 0.677250 	  
 5.628830 	 8.193999 	 0.806331 	 0.812000 	 0.701125 	 0.679375 	  
 6.171168 	 7.288530 	 0.531232 	 0.813562 	 0.699313 	 0.677188 	  
 11.547391 	 7.502321 	 3.565182 	 0.813125 	 0.701187 	 0.679188 	  
 15.579558 	 8.357487 	 2.732025 	 0.812562 	 0.699438 	 0.677312 	  
 14.314102 	 8.420366 	 3.258643 	 0.814937 	 0.701500 	 0.678375 	  
 8.529160 	 7.464594 	 4.461219 	 0.812125 	 0.699500 	 0.678000 	  
 2.524140 	 5.452440 	 2.629845 	 0.814875 	 0.701500 	 0.677687 	  
 -0.061792 	 4.534395 	 5.577336 	 0.812063 	 0.699688 	 0.679125 	  
 2.901419 	 4.773338 	 6.976411 	 0.814937 	 0.700562 	 0.677250 	  
 7.326584 	 5.917751 	 7.392990 	 0.811875 	 0.699625 	 0.679250 	  
 9.464497 	 6.206998 	 6.811352 	 0.814875 	 0.699937 	 0.677250 	  
 7.884642 	 7.150195 	 7.282950 	 0.812125 	 0.700438 	 0.679312 	  
 1.062185 	 7.892176 	 6.850651 	 0.815000 	 0.699500 	 0.677188 	  
 -5.917473 	 7.653233 	 4.571259 	 0.811937 	 0.701187 	 0.679375 	  
 -6.208292 	 6.546549 	 4.146820 	 0.814500 	 0.699562 	 0.677188 	  
 3.789596 	 6.659732 	 2.826344 	 0.812000 	 0.701313 	 0.679312 	  
 12.584907 	 7.175347 	 2.394046 	 0.813063 	 0.699500 	 0.677312 	  
 14.769980 	 6.596852 	 -1.355162 	 0.814562 	 0.701562 	 0.678625 	  
 11.390191 	 5.603352 	 1.466569 	 0.812500 	 0.699625 	 0.677563 	  
 6.454127 	 3.779838 	 1.655208 	 0.814875 	 0.701438 	 0.677937 	  
 1.706702 	 1.616773 	 1.387969 	 0.812125 	 0.699500 	 0.679125 	  
 4.434114 	 0.283721 	 1.128590 	 0.815000 	 0.701125 	 0.677375 	  
 13.543824 	 0.208265 	 0.036053 	 0.812063 	 0.699438 	 0.679500 	  
 19.878964 	 1.214342 	 -0.498425 	 0.814937 	 0.700562 	 0.677312 	  
 19.588145 	 2.346178 	 2.747745 	 0.812250 	 0.700875 	 0.679250 	  
 15.335898 	 1.138886 	 2.079647 	 0.814875 	 0.699562 	 0.677312 	  
 11.586690 	 1.616773 	 0.303293 	 0.812063 	 0.701625 	 0.679375 	  
 9.393758 	 3.704382 	 -0.364805 	 0.813750 	 0.699750 	 0.677188 	  
 11.028632 	 5.867447 	 1.938167 	 0.812625 	 0.701438 	 0.679312 	  
 15.139399 	 8.043088 	 6.756332 	 0.812625 	 0.699500 	 0.677375 	  
 17.725331 	 9.024013 	 7.322250 	 0.815000 	 0.701438 	 0.678250 	  
 16.059016 	 10.520552 	 7.793848 	 0.812250 	 0.699438 	 0.677813 	  
 11.688870 	 11.501477 	 5.451576 	 0.814875 	 0.701500 	 0.677875 	  
 5.542370 	 12.218306 	 5.160757 	 0.812250 	 0.699438 	 0.679125 	  
 2.091841 	 11.212229 	 4.830638 	 0.815063 	 0.700875 	 0.677312 	  
 5.503070 	 10.872679 	 4.893518 	 0.811937 	 0.699375 	 0.679312 	  
 12.891446 	 10.608583 	 7.730969 	 0.815063 	 0.700313 	 0.677250 	  
 17.992570 	 11.337989 	 6.952831 	 0.812125 	 0.700375 	 0.679375 	  
 18.652808 	 10.759495 	 7.282950 	 0.814937 	 0.700063 	 0.677312 	  
 16.192636 	 9.640235 	 5.569476 	 0.812063 	 0.701063 	 0.679438 	  
 9.401618 	 9.703114 	 9.499463 	 0.815000 	 0.699562 	 0.677125 	  
 4.599173 	 11.954211 	 7.636649 	 0.812000 	 0.701500 	 0.679500 	  
 5.628830 	 11.979363 	 3.596622 	 0.814000 	 0.699750 	 0.677188 	  
 7.853203 	 11.602084 	 1.914587 	 0.812500 	 0.701375 	 0.679312 	  
 8.026122 	 12.444673 	 0.987110 	 0.812688 	 0.699500 	 0.677312 	  
 7.067205 	 12.721345 	 1.545169 	 0.814688 	 0.701313 	 0.678250 	  
 5.408750 	 11.979363 	 4.531959 	 0.812250 	 0.699375 	 0.677563 	  
 1.580943 	 11.174502 	 3.235063 	 0.814875 	 0.701375 	 0.677875 	  
 1.062185 	 11.702692 	 5.247217 	 0.812063 	 0.699500 	 0.679250 	  
 7.507364 	 11.212229 	 2.590545 	 0.815063 	 0.700875 	 0.677312 	  
 12.875726 	 10.658887 	 1.773108 	 0.812125 	 0.700187 	 0.679312 	  
 12.907166 	 9.225228 	 1.773108 	 0.815000 	 0.700313 	 0.677375 	  
 9.307298 	 8.458094 	 4.233280 	 0.812250 	 0.701125 	 0.679250 	  
 5.314431 	 7.162771 	 4.335460 	 0.814937 	 0.700000 	 0.677312 	  
 2.036821 	 6.081238 	 2.189687 	 0.812063 	 0.701813 	 0.679500 	  
 3.090058 	 4.899098 	 2.952104 	 0.813625 	 0.699750 	 0.677312 	  
 10.517734 	 4.974554 	 0.271853 	 0.812875 	 0.701750 	 0.679312 	  
 16.632794 	 6.383061 	 3.117164 	 0.812937 	 0.699813 	 0.677375 	  
 17.473811 	 6.420789 	 -1.677421 	 0.814688 	 0.701813 	 0.678500 	  
 14.243362 	 4.811066 	 2.511945 	 0.812375 	 0.699562 	 0.677500 	  
 7.303004 	 2.459362 	 -1.496642 	 0.814813 	 0.701500 	 0.677937 	  
 0.779225 	 1.566469 	 2.323306 	 0.812000 	 0.699937 	 0.679125 	  
 3.483057 	 2.044355 	 2.299726 	 0.815000 	 0.700875 	 0.677375 	  
 10.274075 	 3.503166 	 2.464786 	 0.812063 	 0.699875 	 0.679375 	  
 12.034709 	 4.207420 	 0.358312 	 0.814875 	 0.700187 	 0.677250 	  
 11.091512 	 4.748186 	 2.527665 	 0.812125 	 0.701125 	 0.679312 	  
 10.494154 	 5.125465 	 4.531959 	 0.815000 	 0.699813 	 0.677250 	  
 7.043625 	 6.974131 	 2.944244 	 0.811875 	 0.701813 	 0.679438 	  
 3.019318 	 7.565201 	 -0.836404 	 0.814562 	 0.699813 	 0.677188 	  
 6.524867 	 6.420789 	 5.034997 	 0.812500 	 0.701625 	 0.679375 	  
 12.435568 	 5.439864 	 5.483016 	 0.813000 	 0.699875 	 0.677312 	  
 16.129756 	 6.559125 	 4.304020 	 0.814500 	 0.701688 	 0.678750 	  
 14.196202 	 8.432942 	 -1.559521 	 0.812312 	 0.699562 	 0.677375 	  
 9.558817 	 9.439019 	 -0.042546 	 0.814750 	 0.701187 	 0.678125 	  
 4.465554 	 9.137196 	 1.332949 	 0.812125 	 0.699688 	 0.678500 	  
 4.206174 	 6.974131 	 3.400123 	 0.814937 	 0.701313 	 0.677438 	  
 9.550957 	 4.396060 	 5.435856 	 0.811937 	 0.699438 	 0.679375 	  
 14.149042 	 3.201343 	 3.345103 	 0.814813 	 0.700000 	 0.677375 	  
 14.266942 	 4.836218 	 2.048207 	 0.812125 	 0.700187 	 0.679250 	  
 10.619914 	 5.791991 	 5.050717 	 0.814937 	 0.699937 	 0.677312 	  
 4.009675 	 5.729111 	 2.700585 	 0.811937 	 0.701250 	 0.679375 	  
 -0.297591 	 6.018358 	 5.255077 	 0.814250 	 0.699375 	 0.677125 	  
 2.602740 	 7.678385 	 2.543385 	 0.812500 	 0.701375 	 0.679375 	  
 9.605977 	 8.898253 	 2.952104 	 0.812937 	 0.699750 	 0.677375 	  
 13.630284 	 7.741265 	 2.724165 	 0.815000 	 0.701750 	 0.678312 	  
 12.262648 	 5.817143 	 4.555539 	 0.812188 	 0.699813 	 0.678063 	  
 10.549174 	 4.609851 	 4.901378 	 0.815000 	 0.701625 	 0.677687 	  
 9.283718 	 4.635003 	 4.225420 	 0.812250 	 0.699813 	 0.679188 	  
 9.888936 	 4.949402 	 4.044641 	 0.814937 	 0.701063 	 0.677250 	  
 14.439861 	 6.345333 	 1.843848 	 0.812063 	 0.700250 	 0.679438 	  
 18.409148 	 8.105968 	 0.947811 	 0.815125 	 0.700438 	 0.677312 	  
 18.275529 	 8.294607 	 3.132883 	 0.812125 	 0.701813 	 0.679375 	  
 15.343758 	 5.905175 	 3.156463 	 0.814188 	 0.699875 	 0.677312 	  
 10.729953 	 4.245148 	 5.443716 	 0.812125 	 0.701750 	 0.679500 	  
 4.929292 	 4.056509 	 6.496953 	 0.813375 	 0.699625 	 0.677188 	  
 2.767799 	 5.213497 	 8.375486 	 0.813375 	 0.701500 	 0.679250 	  
 6.304788 	 6.571700 	 3.290083 	 0.812438 	 0.699813 	 0.677312 	  
 11.256572 	 7.175347 	 7.345830 	 0.815000 	 0.701625 	 0.678000 	  
 13.300165 	 5.439864 	 6.410493 	 0.812125 	 0.699875 	 0.678937 	  
 10.384114 	 2.710881 	 3.305803 	 0.814875 	 0.702063 	 0.677625 	  
 4.842832 	 3.742110 	 4.390479 	 0.812250 	 0.699875 	 0.679125 	  
 -0.949969 	 6.068662 	 7.385130 	 0.815063 	 0.700875 	 0.677312 	  
 -1.256508 	 7.527473 	 5.514456 	 0.812000 	 0.700063 	 0.679500 	  
 6.068988 	 6.747764 	 5.986054 	 0.815125 	 0.700000 	 0.677188 	  
 13.583124 	 5.791991 	 3.667362 	 0.812125 	 0.701250 	 0.679375 	  
 14.714960 	 5.854871 	 4.209700 	 0.814813 	 0.699813 	 0.677375 	  
 11.681010 	 7.854448 	 5.663795 	 0.812000 	 0.701313 	 0.679312 	  
 5.660270 	 8.910829 	 5.813135 	 0.813438 	 0.699625 	 0.677188 	  
 0.158287 	 8.772493 	 3.518022 	 0.812500 	 0.701313 	 0.679438 	  
 -1.091448 	 8.181423 	 1.112870 	 0.812875 	 0.699500 	 0.677188 	  
 6.304788 	 6.974131 	 1.961747 	 0.814625 	 0.701625 	 0.678563 	  
 11.877510 	 6.219574 	 2.284006 	 0.812188 	 0.699562 	 0.677625 	  
 11.225132 	 6.194422 	 3.486582 	 0.814750 	 0.701500 	 0.677750 	  
 6.831406 	 7.162771 	 1.694508 	 0.812125 	 0.699562 	 0.679125 	  
 2.461260 	 6.999283 	 2.857784 	 0.814813 	 0.701000 	 0.677500 	  
 -0.454791 	 6.898675 	 2.967824 	 0.812000 	 0.700125 	 0.679438 	  
 1.470903 	 7.955056 	 2.724165 	 0.815063 	 0.700250 	 0.677312 	  
 9.605977 	 10.017513 	 3.384403 	 0.812125 	 0.701375 	 0.679438 	  
 15.972556 	 10.080393 	 1.285789 	 0.814875 	 0.699937 	 0.677438 	  
 15.956836 	 8.671886 	 4.508379 	 0.812250 	 0.701438 	 0.679438 	  
 12.058289 	 7.426866 	 4.225420 	 0.813750 	 0.699500 	 0.677312 	  
 9.653137 	 7.653233 	 6.827072 	 0.812438 	 0.701625 	 0.679500 	  
 9.110798 	 7.955056 	 2.912804 	 0.813188 	 0.699813 	 0.677188 	  
 13.457364 	 7.225650 	 -0.804964 	 0.814188 	 0.701688 	 0.678875 	  
 16.334115 	 6.584276 	 3.612342 	 0.812438 	 0.699750 	 0.677438 	  
 16.302675 	 6.923827 	 3.211483 	 0.814937 	 0.701750 	 0.678063 	  
 15.328038 	 7.087315 	 6.080374 	 0.812188 	 0.699750 	 0.678500 	  
 13.315885 	 4.987130 	 8.210427 	 0.814813 	 0.701438 	 0.677813 	  
 8.144022 	 3.855293 	 6.245433 	 0.812063 	 0.699562 	 0.679188 	  
 4.685633 	 4.936826 	 6.732752 	 0.815000 	 0.701438 	 0.677500 	  
 7.601683 	 7.162771 	 4.767758 	 0.812063 	 0.699500 	 0.679375 	  
 12.074009 	 6.860948 	 0.499792 	 0.814875 	 0.700438 	 0.677438 	  
 13.449504 	 6.559125 	 -3.477355 	 0.812188 	 0.699813 	 0.679188 	  
 13.072226 	 7.753841 	 -5.961107 	 0.815000 	 0.700250 	 0.677375 	  
 8.796400 	 8.986285 	 -1.983960 	 0.812125 	 0.701750 	 0.679438 	  
 -0.085372 	 6.999283 	 0.256133 	 0.814750 	 0.700000 	 0.677188 	  
 -3.213642 	 5.012282 	 2.849924 	 0.812188 	 0.701688 	 0.679375 	  
 2.972158 	 4.660155 	 1.450849 	 0.813312 	 0.699875 	 0.677312 	  
 9.558817 	 5.427288 	 2.889224 	 0.813562 	 0.701875 	 0.679312 	  
 10.895013 	 6.307605 	 4.909238 	 0.812688 	 0.699750 	 0.677250 	  
 9.134378 	 6.961555 	 1.293649 	 0.814813 	 0.701375 	 0.678375 	  
 3.373017 	 6.697460 	 4.178260 	 0.812188 	 0.699625 	 0.678188 	  
 -1.468727 	 7.263378 	 4.476939 	 0.815000 	 0.701250 	 0.677687 	  
 -0.541250 	 9.728266 	 4.909238 	 0.812063 	 0.699500 	 0.679125 	  
 6.265488 	 11.249957 	 3.101444 	 0.815000 	 0.701250 	 0.677500 	  
 8.819979 	 10.684039 	 -0.671344 	 0.812125 	 0.699750 	 0.679188 	  
 7.405184 	 8.646734 	 -0.632044 	 0.814875 	 0.700375 	 0.677375 	  
 5.235831 	 8.256879 	 -0.490565 	 0.811875 	 0.701375 	 0.679375 	  
 2.571300 	 9.866602 	 4.704878 	 0.815125 	 0.699937 	 0.677312 	  
 1.227244 	 10.558280 	 3.148603 	 0.812063 	 0.701688 	 0.679438 	  
 5.801749 	 10.809799 	 2.260426 	 0.813438 	 0.699688 	 0.677375 	  
 14.149042 	 10.809799 	 5.750255 	 0.814000 	 0.701375 	 0.679188 	  
 19.336625 	 11.048742 	 3.070004 	 0.812562 	 0.699813 	 0.677438 	  
 20.279822 	 11.325413 	 3.250783 	 0.814813 	 0.701875 	 0.678312 	  
 17.379492 	 11.828451 	 6.795632 	 0.812312 	 0.699813 	 0.677813 	  
 11.570971 	 10.671463 	 3.407983 	 0.815000 	 0.701937 	 0.677750 	  
 8.521300 	 11.677540 	 4.807058 	 0.812063 	 0.700000 	 0.679188 	  
 12.600627 	 12.633313 	 8.540546 	 0.815125 	 0.701625 	 0.677563 	  
 17.858950 	 11.463749 	 6.103954 	 0.812250 	 0.699750 	 0.679375 	  
 19.053666 	 10.130697 	 6.402633 	 0.814875 	 0.701187 	 0.677563 	  
 16.396995 	 9.967209 	 8.249727 	 0.812063 	 0.699688 	 0.679375 	  
 11.547391 	 10.042665 	 7.275090 	 0.815063 	 0.700375 	 0.677250 	  
 6.744946 	 10.369640 	 2.865644 	 0.812063 	 0.700250 	 0.679500 	  
 6.721366 	 11.526628 	 3.950321 	 0.814937 	 0.700500 	 0.677250 	  
 13.300165 	 10.922982 	 3.942461 	 0.812250 	 0.701750 	 0.679312 	  
 17.143692 	 8.181423 	 4.799198 	 0.814937 	 0.699937 	 0.677375 	  
 17.088673 	 5.666231 	 2.771325 	 0.812000 	 0.701750 	 0.679438 	  
 14.432001 	 4.773338 	 2.339026 	 0.814937 	 0.700000 	 0.677250 	  
 9.605977 	 4.924250 	 3.392263 	 0.812000 	 0.701750 	 0.679500 	  
 2.673479 	 4.710458 	 1.670928 	 0.813375 	 0.699937 	 0.677375 	  
 1.871762 	 2.019203 	 -0.490565 	 0.813250 	 0.701875 	 0.679250 	  
 8.521300 	 -0.131286 	 -1.174383 	 0.812813 	 0.699813 	 0.677188 	  
 13.308025 	 -0.571444 	 -0.349085 	 0.814750 	 0.701813 	 0.678375 	  
 11.940389 	 0.044778 	 -1.308002 	 0.812312 	 0.699375 	 0.677937 	  
 9.055779 	 0.132809 	 -0.364805 	 0.814937 	 0.701250 	 0.677687 	  
 5.157231 	 -0.923571 	 1.977467 	 0.811937 	 0.699500 	 0.679250 	  
 0.386227 	 -1.904496 	 1.725948 	 0.814937 	 0.700625 	 0.677375 	  
 0.637746 	 -1.439186 	 6.056794 	 0.812125 	 0.699562 	 0.679188 	  
 7.523084 	 -0.319925 	 4.909238 	 0.814875 	 0.699937 	 0.677312 	  
 15.100099 	 1.591621 	 4.264720 	 0.812000 	 0.700625 	 0.679375 	  
 17.324472 	 3.930749 	 6.858511 	 0.815000 	 0.699375 	 0.677250 	  
 15.626717 	 5.641079 	 2.566965 	 0.812063 	 0.701063 	 0.679438 	  
 9.668857 	 5.439864 	 5.420136 	 0.814937 	 0.699813 	 0.677375 	  
 3.105778 	 4.484091 	 5.443716 	 0.812250 	 0.701438 	 0.679375 	  
 2.492700 	 3.364831 	 0.491932 	 0.813438 	 0.699750 	 0.677312 	  
 8.647060 	 2.559969 	 0.877071 	 0.813688 	 0.701688 	 0.679375 	  
 13.402345 	 2.899520 	 0.146093 	 0.812688 	 0.699688 	 0.677312 	  
 13.771763 	 3.943325 	 3.180043 	 0.815063 	 0.701250 	 0.678250 	  
 10.572754 	 4.257724 	 -1.394462 	 0.812250 	 0.699500 	 0.677750 	  
 8.867139 	 4.760762 	 0.900651 	 0.815063 	 0.701500 	 0.678000 	  
 8.041842 	 6.345333 	 1.246490 	 0.812250 	 0.699562 	 0.679000 	  
 8.584180 	 5.842295 	 2.692725 	 0.814937 	 0.701250 	 0.677625 	  
 10.950033 	 5.678807 	 8.697745 	 0.812312 	 0.699688 	 0.679312 	  
 12.749967 	 4.949402 	 8.281167 	 0.815125 	 0.700125 	 0.677438 	  
 11.586690 	 4.559547 	 7.094311 	 0.811937 	 0.699562 	 0.679438 	  
 8.882859 	 3.804989 	 3.871721 	 0.815000 	 0.700187 	 0.677438 	  
 5.605250 	 4.521819 	 1.883148 	 0.812188 	 0.700813 	 0.679438 	  
 3.317997 	 4.861370 	 2.056067 	 0.814813 	 0.699688 	 0.677438 	  
 5.290851 	 5.553048 	 5.019277 	 0.811937 	 0.701562 	 0.679375 	  
 9.134378 	 6.370485 	 3.219343 	 0.814438 	 0.699625 	 0.677250 	  
 10.918593 	 7.879600 	 1.513729 	 0.812250 	 0.701250 	 0.679563 	  
 10.022556 	 9.262956 	 0.955671 	 0.813250 	 0.699562 	 0.677312 	  
 4.410534 	 9.262956 	 1.207190 	 0.813750 	 0.701562 	 0.679250 	  
 -3.543761 	 8.709614 	 3.934601 	 0.812813 	 0.699375 	 0.677375 	  
 -5.045016 	 8.357487 	 1.474429 	 0.814750 	 0.701313 	 0.678375 	  
 2.241181 	 8.156271 	 3.242923 	 0.812312 	 0.699250 	 0.677563 	  
 8.654920 	 8.885677 	 6.103954 	 0.814875 	 0.701000 	 0.677875 	  
 8.136162 	 10.344488 	 5.710955 	 0.812063 	 0.699500 	 0.679188 	  
 5.188671 	 10.709191 	 4.382619 	 0.815000 	 0.701375 	 0.677625 	  
 0.834245 	 10.357064 	 7.518749 	 0.812063 	 0.699375 	 0.679188 	  
 -1.437287 	 9.778570 	 5.765975 	 0.814875 	 0.700500 	 0.677438 	  
 2.021101 	 10.042665 	 5.986054 	 0.811937 	 0.699500 	 0.679375 	  
 8.458421 	 9.350987 	 5.042857 	 0.815000 	 0.700187 	 0.677312 	  
 13.103666 	 10.080393 	 1.867428 	 0.812063 	 0.700187 	 0.679375 	  
 13.842503 	 10.495400 	 0.672711 	 0.814875 	 0.699625 	 0.677250 	  
 11.712450 	 9.841450 	 1.348669 	 0.812125 	 0.701250 	 0.679438 	  
 6.713506 	 8.998861 	 0.452632 	 0.814813 	 0.699750 	 0.677438 	  
 1.549503 	 8.520974 	 1.450849 	 0.812125 	 0.701750 	 0.679438 	  
 4.206174 	 9.300684 	 2.291866 	 0.813188 	 0.699500 	 0.677250 	  
 13.528104 	 10.130697 	 2.637705 	 0.814438 	 0.701375 	 0.679000 	  
 17.780350 	 10.809799 	 3.062144 	 0.812375 	 0.699750 	 0.677312 	  
 15.948976 	 8.483246 	 3.706662 	 0.814937 	 0.701562 	 0.678375 	  
 12.136889 	 7.024435 	 3.565182 	 0.812250 	 0.699375 	 0.677687 	  
 7.318724 	 8.068240 	 4.225420 	 0.814750 	 0.701625 	 0.678000 	  
 5.227971 	 9.577355 	 3.494442 	 0.812250 	 0.699625 	 0.678875 	  
 12.223348 	 8.344911 	 3.981761 	 0.815000 	 0.701375 	 0.677625 	  
 19.996863 	 7.426866 	 4.767758 	 0.812063 	 0.699625 	 0.679438 	  
 20.775001 	 6.622004 	 3.966041 	 0.815000 	 0.700625 	 0.677250 	  
 18.330549 	 7.326258 	 4.948538 	 0.812125 	 0.700000 	 0.679312 	  
 13.284445 	 9.514475 	 2.276146 	 0.814937 	 0.700250 	 0.677375 	  
 6.422687 	 10.445096 	 2.732025 	 0.812000 	 0.700562 	 0.679438 	  
 4.253334 	 8.080816 	 3.195763 	 0.815000 	 0.699875 	 0.677312 	  
 10.446994 	 7.301106 	 3.769541 	 0.812063 	 0.701562 	 0.679625 	  
 15.697457 	 8.080816 	 -0.081846 	 0.814750 	 0.699750 	 0.677438 	  
 14.471301 	 8.420366 	 2.700585 	 0.812188 	 0.701438 	 0.679312 	  
 9.299438 	 6.710036 	 0.279713 	 0.813688 	 0.699562 	 0.677375 	  
 3.553796 	 5.087737 	 -1.567381 	 0.812750 	 0.701250 	 0.679438 	  
 -2.380484 	 4.635003 	 0.452632 	 0.812750 	 0.699500 	 0.677125 	  
 -1.924606 	 4.119388 	 4.469079 	 0.814750 	 0.701438 	 0.678312 	  
 4.174734 	 4.282876 	 3.934601 	 0.812125 	 0.699438 	 0.677687 	  
 9.653137 	 6.093814 	 3.856001 	 0.814875 	 0.701313 	 0.678125 	  
 11.681010 	 8.722190 	 3.573042 	 0.812000 	 0.699375 	 0.678750 	  
 9.040059 	 8.508398 	 6.363333 	 0.814750 	 0.701375 	 0.677625 	  
 5.432330 	 7.602929 	 4.964258 	 0.812125 	 0.699562 	 0.679312 	  
 2.610600 	 6.194422 	 3.242923 	 0.814937 	 0.700375 	 0.677312 	  
 4.151155 	 5.628504 	 4.280440 	 0.811875 	 0.699750 	 0.679438 	  
 11.115092 	 5.905175 	 4.123240 	 0.814937 	 0.700125 	 0.677375 	  
 17.198712 	 7.062163 	 6.882091 	 0.812125 	 0.700438 	 0.679375 	  
 16.302675 	 6.596852 	 3.620202 	 0.814875 	 0.699562 	 0.677500 	  
 9.975396 	 4.157116 	 4.264720 	 0.812000 	 0.701187 	 0.679438 	  
 3.498777 	 2.874368 	 -1.724581 	 0.814875 	 0.699250 	 0.677312 	  
 3.066478 	 3.201343 	 -1.135083 	 0.812312 	 0.701375 	 0.679500 	  
 8.489861 	 3.151040 	 0.342592 	 0.812813 	 0.699625 	 0.677438 	  
 16.090456 	 4.157116 	 -1.693141 	 0.814875 	 0.701562 	 0.678312 	  
 19.674604 	 6.068662 	 2.653425 	 0.812438 	 0.699562 	 0.677563 	  
 17.151552 	 7.213074 	 1.859568 	 0.814813 	 0.701500 	 0.678375 	  
 11.500231 	 7.992784 	 1.034270 	 0.812250 	 0.699500 	 0.678750 	  
 8.450561 	 7.967632 	 4.539819 	 0.815000 	 0.701250 	 0.677625 	  
 8.191181 	 8.105968 	 5.970334 	 0.811937 	 0.699500 	 0.679500 	  
 14.172622 	 8.596430 	 7.361550 	 0.815000 	 0.700500 	 0.677500 	  
 19.383785 	 9.501899 	 5.624495 	 0.812125 	 0.699750 	 0.679375 	  
 18.747127 	 8.671886 	 6.245433 	 0.814875 	 0.699875 	 0.677438 	  
 14.314102 	 8.609006 	 3.973901 	 0.812000 	 0.700937 	 0.679500 	  
 10.077575 	 9.451595 	 4.193980 	 0.815000 	 0.699937 	 0.677375 	  
 7.515224 	 10.004937 	 4.406199 	 0.811937 	 0.701500 	 0.679563 	  
 6.611327 	 9.137196 	 5.435856 	 0.814625 	 0.699688 	 0.677312 	  
 10.509874 	 8.860525 	 2.307586 	 0.812063 	 0.701813 	 0.679500 	  
 13.056506 	 8.910829 	 5.938894 	 0.813375 	 0.699750 	 0.677500 	  
 12.537747 	 9.476747 	 6.033214 	 0.812937 	 0.701625 	 0.679438 	  
 10.061855 	 9.124620 	 4.924958 	 0.812937 	 0.699562 	 0.677250 	  
 5.919649 	 8.030512 	 8.139687 	 0.813562 	 0.701250 	 0.679250 	  
 1.062185 	 7.892176 	 9.530903 	 0.812625 	 0.699625 	 0.677312 	  
 3.247257 	 9.011437 	 7.400850 	 0.814875 	 0.701313 	 0.678312 	  
 9.252278 	 10.797223 	 5.931034 	 0.812125 	 0.699438 	 0.677500 	  
 12.042569 	 11.363141 	 3.533742 	 0.814625 	 0.701250 	 0.678125 	  
 7.892502 	 12.796800 	 2.999264 	 0.812125 	 0.699375 	 0.678063 	  
 1.227244 	 11.828451 	 0.476212 	 0.814937 	 0.701125 	 0.677687 	  
 -3.960339 	 9.262956 	 -1.017183 	 0.811937 	 0.699313 	 0.679375 	  
 -3.080022 	 7.175347 	 -3.367315 	 0.814875 	 0.700500 	 0.677375 	  
 3.176518 	 6.332757 	 -1.386602 	 0.812063 	 0.699750 	 0.679312 	  
 9.873216 	 6.043510 	 -2.062560 	 0.814875 	 0.699937 	 0.677375 	  
 12.459148 	 6.357909 	 -2.109720 	 0.811937 	 0.701375 	 0.679500 	  
 9.393758 	 5.905175 	 -2.235479 	 0.813937 	 0.699562 	 0.677188 	  
 5.015752 	 4.735610 	 -0.105426 	 0.812375 	 0.701063 	 0.679563 	  
 0.802805 	 2.144963 	 -1.135083 	 0.812750 	 0.699375 	 0.677312 	  
 2.107561 	 0.887367 	 3.030704 	 0.815000 	 0.701438 	 0.678312 	  
 9.032199 	 2.710881 	 4.697018 	 0.812063 	 0.699562 	 0.678500 	  
 13.976123 	 5.389560 	 4.877798 	 0.814875 	 0.701562 	 0.677875 	  
 14.864300 	 6.383061 	 7.377270 	 0.812250 	 0.699625 	 0.679063 	  
 12.396268 	 5.075161 	 4.013201 	 0.814750 	 0.701313 	 0.677500 	  
 7.955382 	 4.710458 	 5.679515 	 0.811937 	 0.699688 	 0.679438 	  
 4.402674 	 4.584699 	 4.641999 	 0.815125 	 0.700438 	 0.677375 	  
 4.041115 	 4.873946 	 4.453359 	 0.812063 	 0.700313 	 0.679312 	  
 10.478434 	 5.942903 	 2.897084 	 0.814937 	 0.700063 	 0.677375 	  
 17.811790 	 5.200921 	 4.241140 	 0.812125 	 0.701500 	 0.679500 	  
 19.352345 	 2.811489 	 3.911021 	 0.814937 	 0.699688 	 0.677312 	  
 14.023283 	 4.069085 	 2.417626 	 0.811813 	 0.701375 	 0.679563 	  
 6.839266 	 6.030934 	 1.089290 	 0.813875 	 0.699750 	 0.677312 	  
 2.351220 	 5.150617 	 6.512673 	 0.812750 	 0.701250 	 0.679375 	  
 3.357297 	 4.056509 	 7.172910 	 0.812937 	 0.699500 	 0.677375 	  
 11.036492 	 5.703959 	 10.835659 	 0.813750 	 0.701562 	 0.679188 	  
 17.387352 	 7.351410 	 6.331893 	 0.812688 	 0.699375 	 0.677312 	  
 16.035436 	 6.471093 	 7.062871 	 0.814500 	 0.701438 	 0.678813 	  
 9.983256 	 6.848372 	 5.530176 	 0.812250 	 0.699250 	 0.677625 	  
 3.600956 	 7.112467 	 5.294376 	 0.814875 	 0.701125 	 0.678188 	  
 0.197587 	 7.326258 	 5.938894 	 0.812000 	 0.699125 	 0.678563 	  
 3.954655 	 6.923827 	 2.582685 	 0.814688 	 0.701125 	 0.677937 	  
 10.619914 	 7.477170 	 0.193253 	 0.812125 	 0.699562 	 0.679188 	  
 14.054722 	 6.647156 	 -1.496642 	 0.814875 	 0.701125 	 0.677625 	  
 11.390191 	 5.087737 	 0.216833 	 0.811750 	 0.699438 	 0.679438 	  
 7.240125 	 5.188345 	 2.189687 	 0.815000 	 0.700313 	 0.677250 	  
 3.310137 	 7.917328 	 3.266503 	 0.811937 	 0.699750 	 0.679375 	  
 1.722422 	 9.841450 	 2.016767 	 0.814750 	 0.699813 	 0.677438 	  
 7.892502 	 9.338412 	 6.960691 	 0.811937 	 0.701375 	 0.679375 	  
 14.612781 	 7.514897 	 4.319740 	 0.814625 	 0.699438 	 0.677312 	  
 17.961130 	 7.313682 	 0.531232 	 0.811875 	 0.701313 	 0.679500 	  
 15.430218 	 7.426866 	 1.301509 	 0.813500 	 0.699937 	 0.677312 	  
 9.873216 	 6.798068 	 1.930307 	 0.812688 	 0.701313 	 0.679375 	  
 3.498777 	 4.119388 	 5.050717 	 0.812688 	 0.699438 	 0.677500 	  
 3.459477 	 2.446786 	 2.952104 	 0.814625 	 0.701625 	 0.678500 	  
 9.881076 	 3.251647 	 3.109304 	 0.812375 	 0.699562 	 0.677563 	  
 15.878237 	 5.100313 	 4.618419 	 0.814750 	 0.701313 	 0.678312 	  
 16.656374 	 6.206998 	 3.148603 	 0.812375 	 0.699625 	 0.677625 	  
 16.247655 	 7.125043 	 1.191470 	 0.814937 	 0.701375 	 0.677937 	  
 12.349108 	 7.929904 	 0.822051 	 0.812125 	 0.699375 	 0.679188 	  
 5.919649 	 7.288530 	 0.994970 	 0.814813 	 0.701375 	 0.677687 	  
 4.614893 	 7.049587 	 4.083940 	 0.811937 	 0.699250 	 0.679375 	  
 9.967536 	 6.219574 	 3.266503 	 0.815000 	 0.700187 	 0.677438 	  
 15.595278 	 6.848372 	 4.351180 	 0.811937 	 0.699562 	 0.679500 	  
 16.852873 	 7.477170 	 1.773108 	 0.814875 	 0.700375 	 0.677312 	  
 11.767470 	 8.017936 	 1.930307 	 0.811937 	 0.700063 	 0.679312 	  
 3.962515 	 6.672308 	 2.535525 	 0.814813 	 0.700000 	 0.677500 	  
 0.787085 	 5.930327 	 2.291866 	 0.812000 	 0.701063 	 0.679500 	  
 4.607033 	 4.043933 	 1.922447 	 0.815000 	 0.699813 	 0.677375 	  
 12.050429 	 3.603774 	 3.282223 	 0.811937 	 0.701438 	 0.679563 	  
 15.100099 	 5.477592 	 -0.168306 	 0.814188 	 0.699562 	 0.677375 	  
 13.174405 	 7.917328 	 -0.820684 	 0.812500 	 0.701375 	 0.679500 	  
 7.845343 	 6.596852 	 -4.821411 	 0.813188 	 0.699625 	 0.677438 	  
 2.555580 	 3.742110 	 -0.569165 	 0.814375 	 0.701625 	 0.678813 	  
 1.470903 	 4.622427 	 1.089290 	 0.812312 	 0.699500 	 0.677375 	  
 7.884642 	 7.527473 	 3.942461 	 0.814750 	 0.701313 	 0.678188 	  
 13.064366 	 9.225228 	 5.239357 	 0.812063 	 0.699562 	 0.678375 	  
 14.652081 	 9.703114 	 5.129317 	 0.815000 	 0.701500 	 0.677687 	  
 12.136889 	 10.507976 	 5.954614 	 0.812063 	 0.699688 	 0.679375 	  
 7.075065 	 11.036166 	 2.834204 	 0.814750 	 0.701000 	 0.677500 	  
 1.463043 	 12.168002 	 2.842064 	 0.812000 	 0.699813 	 0.679375 	  
 1.840322 	 11.715268 	 4.382619 	 0.814937 	 0.700500 	 0.677375 	  
 7.452344 	 10.583431 	 5.380836 	 0.812000 	 0.700688 	 0.679563 	  
 11.052212 	 9.916906 	 4.586979 	 0.815063 	 0.700187 	 0.677438 	  
 11.956109 	 10.809799 	 3.541602 	 0.812188 	 0.701438 	 0.679500 	  
 10.384114 	 9.011437 	 6.088234 	 0.814937 	 0.700000 	 0.677438 	  
 5.778169 	 7.074739 	 4.366899 	 0.812312 	 0.701750 	 0.679500 	  
 0.535566 	 7.049587 	 4.359039 	 0.813875 	 0.699813 	 0.677375 	  
 3.734576 	 8.558702 	 1.615908 	 0.812500 	 0.701375 	 0.679563 	  
 11.020772 	 8.747341 	 5.435856 	 0.812875 	 0.699813 	 0.677438 	  
 17.080813 	 8.030512 	 4.115380 	 0.814312 	 0.701250 	 0.679000 	  
 16.538474 	 8.420366 	 6.041074 	 0.812562 	 0.699625 	 0.677375 	  
 14.070442 	 9.967209 	 7.251510 	 0.814625 	 0.701750 	 0.678687 	  
 8.065422 	 10.596007 	 3.667362 	 0.812375 	 0.699750 	 0.677500 	  
 2.862119 	 10.382216 	 5.954614 	 0.814813 	 0.701500 	 0.678250 	  
 3.695276 	 10.269032 	 6.221853 	 0.812000 	 0.699750 	 0.678312 	  
 7.861063 	 8.609006 	 8.516966 	 0.814937 	 0.701375 	 0.678000 	  
 10.769253 	 6.948979 	 3.345103 	 0.812063 	 0.699500 	 0.678438 	  
 13.119386 	 7.665809 	 1.694508 	 0.814875 	 0.701500 	 0.677813 	  
 10.902873 	 10.030089 	 -1.394462 	 0.812188 	 0.699688 	 0.679438 	  
 5.455910 	 8.797645 	 1.655208 	 0.815000 	 0.700875 	 0.677500 	  
 3.506637 	 6.622004 	 -0.553445 	 0.812000 	 0.699750 	 0.679563 	  
 8.041842 	 6.408213 	 1.914587 	 0.815000 	 0.700187 	 0.677438 	  
 13.952543 	 7.602929 	 2.409766 	 0.812063 	 0.700375 	 0.679375 	  
 17.631011 	 8.005360 	 4.940678 	 0.815000 	 0.700063 	 0.677438 	  
 16.522755 	 8.357487 	 3.800981 	 0.812000 	 0.701375 	 0.679500 	  
 11.665290 	 7.728689 	 3.730242 	 0.814937 	 0.699875 	 0.677375 	  
 5.943229 	 8.143695 	 7.542329 	 0.811937 	 0.701500 	 0.679625 	  
 4.866412 	 8.961133 	 6.913531 	 0.814750 	 0.699875 	 0.677375 	  
 9.723877 	 8.885677 	 6.190414 	 0.812000 	 0.701688 	 0.679500 	  
 11.531671 	 6.571700 	 3.549462 	 0.814125 	 0.699875 	 0.677312 	  
 8.741380 	 3.553470 	 5.412276 	 0.811875 	 0.701688 	 0.679500 	  
 5.455910 	 2.333602 	 3.604482 	 0.813625 	 0.699937 	 0.677312 	  
 2.209741 	 2.170115 	 3.022844 	 0.812500 	 0.701625 	 0.679500 	  
 -1.869586 	 1.063430 	 1.568749 	 0.812875 	 0.699688 	 0.677375 	  
 -1.759546 	 -0.709780 	 -0.176166 	 0.813813 	 0.701875 	 0.679188 	  
 2.374800 	 -2.621326 	 -0.239046 	 0.812500 	 0.699313 	 0.677312 	  
 7.538804 	 -2.772237 	 1.804548 	 0.814813 	 0.701562 	 0.678250 	  
 8.309081 	 -1.112211 	 -1.245122 	 0.812125 	 0.699688 	 0.678813 	  
 6.131868 	 -0.961299 	 0.146093 	 0.815000 	 0.701438 	 0.677625 	  
 1.400163 	 -0.659476 	 1.411549 	 0.812125 	 0.699625 	 0.679563 	  
 -2.294025 	 0.082505 	 3.235063 	 0.815063 	 0.700625 	 0.677500 	  
 1.549503 	 2.044355 	 2.747745 	 0.812063 	 0.700125 	 0.679438 	  
 11.036492 	 4.622427 	 -0.946443 	 0.815063 	 0.700063 	 0.677500 	  
 17.568131 	 5.930327 	 -2.227619 	 0.812125 	 0.701562 	 0.679625 	  
 16.074736 	 4.961978 	 -0.899283 	 0.814750 	 0.699625 	 0.677375 	  
 8.874999 	 4.760762 	 5.891735 	 0.812000 	 0.701562 	 0.679625 	  
 2.429820 	 4.974554 	 3.486582 	 0.813688 	 0.699937 	 0.677375 	  
 3.074338 	 5.326680 	 4.013201 	 0.812438 	 0.701813 	 0.679438 	  
 7.295144 	 5.678807 	 6.221853 	 0.813125 	 0.699688 	 0.677375 	  
 11.390191 	 7.250802 	 2.511945 	 0.813625 	 0.701562 	 0.679250 	  
 13.732464 	 8.646734 	 7.039291 	 0.812875 	 0.699500 	 0.677375 	  
 12.616347 	 7.904752 	 3.887441 	 0.814813 	 0.701500 	 0.678438 	  
 8.120442 	 8.282031 	 6.410493 	 0.812063 	 0.699625 	 0.678063 	  
 6.249768 	 10.306760 	 5.530176 	 0.815000 	 0.701562 	 0.677937 	  
 8.647060 	 12.168002 	 6.866371 	 0.812125 	 0.699688 	 0.678937 	  
 14.424141 	 11.727844 	 7.243650 	 0.815000 	 0.701625 	 0.677813 	  
 18.024010 	 11.966787 	 4.673438 	 0.812063 	 0.699937 	 0.679438 	  
 16.341975 	 14.041820 	 7.290810 	 0.815000 	 0.701625 	 0.677563 	  
 12.231208 	 16.280341 	 3.973901 	 0.812125 	 0.699750 	 0.679500 	  
 7.012185 	 14.934713 	 3.242923 	 0.814875 	 0.701000 	 0.677500 	  
 2.602740 	 12.708769 	 2.056067 	 0.812125 	 0.699875 	 0.679375 	  
 3.538077 	 10.797223 	 2.488366 	 0.814813 	 0.699937 	 0.677500 	  
 11.115092 	 11.778148 	 1.285789 	 0.811937 	 0.701438 	 0.679500 	  
 16.389135 	 11.916483 	 2.857784 	 0.815000 	 0.700000 	 0.677312 	  
 15.705317 	 10.646311 	 1.325089 	 0.812000 	 0.701688 	 0.679438 	  
 11.358751 	 8.344911 	 1.600188 	 0.814000 	 0.700125 	 0.677563 	  
 6.469847 	 6.735188 	 2.849924 	 0.812063 	 0.701688 	 0.679438 	  
 2.924999 	 6.546549 	 2.362606 	 0.813438 	 0.699562 	 0.677312 	  
 6.650626 	 7.804144 	 3.573042 	 0.813500 	 0.701875 	 0.679312 	  
 14.573481 	 7.791569 	 3.722382 	 0.812625 	 0.699937 	 0.677563 	  
 19.171566 	 7.137619 	 2.433346 	 0.815000 	 0.701813 	 0.678188 	  
 16.884313 	 7.728689 	 3.580902 	 0.812188 	 0.699813 	 0.678375 	  
 10.981472 	 8.495822 	 1.309369 	 0.815063 	 0.701813 	 0.677813 	  
 5.715289 	 8.923405 	 0.774891 	 0.812250 	 0.699625 	 0.679312 	  
 5.157231 	 8.131119 	 2.150387 	 0.815000 	 0.700750 	 0.677563 	  
 8.474141 	 7.778993 	 4.665579 	 0.812125 	 0.700063 	 0.679438 	  
 13.567404 	 7.037011 	 7.039291 	 0.815188 	 0.700375 	 0.677438 	  
 17.395212 	 8.017936 	 7.361550 	 0.812000 	 0.700562 	 0.679563 	  
 17.890390 	 7.741265 	 4.618419 	 0.814937 	 0.700000 	 0.677438 	  
 15.414498 	 6.030934 	 2.480506 	 0.812250 	 0.701187 	 0.679438 	  
 10.627774 	 4.660155 	 2.873504 	 0.814937 	 0.699562 	 0.677500 	  
 8.639200 	 5.980630 	 6.740612 	 0.812063 	 0.701562 	 0.679563 	  
 12.411988 	 7.690961 	 5.427996 	 0.813875 	 0.699438 	 0.677312 	  
 16.396995 	 6.559125 	 6.088234 	 0.812688 	 0.701500 	 0.679500 	  
 15.721037 	 4.697883 	 6.001774 	 0.813063 	 0.699813 	 0.677312 	  
 12.954326 	 3.767262 	 5.663795 	 0.813312 	 0.701875 	 0.679375 	  
 8.489861 	 3.138464 	 4.618419 	 0.813000 	 0.699625 	 0.677438 	  
 3.710996 	 2.849217 	 4.602699 	 0.814438 	 0.701562 	 0.678937 	  
 3.035038 	 3.389983 	 6.551972 	 0.812562 	 0.699562 	 0.677375 	  
 9.495937 	 5.553048 	 2.732025 	 0.815000 	 0.701562 	 0.678188 	  
 13.732464 	 8.458094 	 2.441206 	 0.812125 	 0.699625 	 0.678750 	  
 13.056506 	 8.747341 	 -1.284422 	 0.815000 	 0.701438 	 0.677750 	  
 9.393758 	 7.187922 	 2.221126 	 0.812188 	 0.699375 	 0.679250 	  
 2.807099 	 5.678807 	 1.293649 	 0.814937 	 0.700750 	 0.677563 	  
 -4.612717 	 6.181846 	 5.475156 	 0.812000 	 0.699500 	 0.679500 	  
 -5.375135 	 6.810644 	 5.577336 	 0.815000 	 0.699937 	 0.677375 	  
 1.321564 	 7.703537 	 3.313663 	 0.811937 	 0.701000 	 0.679438 	  
 7.020045 	 8.684462 	 4.225420 	 0.814875 	 0.699688 	 0.677500 	  
 7.585963 	 9.049164 	 4.673438 	 0.812125 	 0.701438 	 0.679375 	  
 4.583453 	 8.193999 	 3.738102 	 0.814750 	 0.699688 	 0.677250 	  
 1.580943 	 7.288530 	 4.500519 	 0.811937 	 0.701375 	 0.679563 	  
 -0.792769 	 6.295029 	 3.840281 	 0.813875 	 0.699750 	 0.677250 	  
 0.952145 	 6.747764 	 -0.875704 	 0.812500 	 0.701375 	 0.679500 	  
 5.400891 	 6.684884 	 -3.587395 	 0.812813 	 0.699875 	 0.677500 	  
 10.234775 	 5.565624 	 -5.348029 	 0.815000 	 0.701688 	 0.678250 	  
 11.853930 	 5.037433 	 -2.211899 	 0.812250 	 0.699750 	 0.678375 	  
 8.489861 	 3.968477 	 0.153953 	 0.814937 	 0.701562 	 0.677875 	  
 3.514497 	 4.421211 	 2.975684 	 0.812125 	 0.699562 	 0.679438 	  
 1.738142 	 3.704382 	 4.697018 	 0.815063 	 0.700375 	 0.677438 	  
 6.383387 	 2.270722 	 6.976411 	 0.812188 	 0.699813 	 0.679563 	  
 14.840720 	 1.906020 	 1.277929 	 0.815125 	 0.700313 	 0.677500 	  
 19.517405 	 2.610273 	 3.219343 	 0.812312 	 0.701688 	 0.679500 	  
 17.725331 	 1.541317 	 3.030704 	 0.814625 	 0.699625 	 0.677500 	  
 11.067932 	 1.050854 	 1.505869 	 0.812125 	 0.701625 	 0.679563 	  
 4.827112 	 3.100736 	 5.860295 	 0.813813 	 0.699625 	 0.677375 	  
 5.416610 	 6.684884 	 6.709172 	 0.812562 	 0.701187 	 0.679563 	  
 11.798910 	 9.036588 	 6.292593 	 0.812875 	 0.699500 	 0.677438 	  
 17.898250 	 9.451595 	 1.592328 	 0.814438 	 0.701313 	 0.678875 	  
 18.597788 	 8.596430 	 2.873504 	 0.812500 	 0.699250 	 0.677438 	  
 14.039003 	 7.829296 	 5.758115 	 0.814875 	 0.701250 	 0.678438 	  
 6.202608 	 7.766417 	 4.209700 	 0.812312 	 0.699750 	 0.677937 	  
 2.044681 	 7.791569 	 3.942461 	 0.815000 	 0.701438 	 0.677875 	  
 5.330151 	 8.458094 	 3.903161 	 0.812188 	 0.699625 	 0.679312 	  
 12.411988 	 8.596430 	 5.011417 	 0.815000 	 0.701250 	 0.677687 	  
 16.381275 	 8.017936 	 4.979977 	 0.812250 	 0.699562 	 0.679438 	  
 15.901817 	 5.703959 	 6.017494 	 0.815000 	 0.700313 	 0.677563 	  
 11.704590 	 5.955478 	 7.565909 	 0.812125 	 0.699875 	 0.679375 	  
 5.675990 	 7.389138 	 4.995697 	 0.815063 	 0.700313 	 0.677312 	  
 2.060401 	 8.231727 	 7.070731 	 0.811937 	 0.701000 	 0.679563 	  
 4.607033 	 8.143695 	 5.648075 	 0.814875 	 0.700063 	 0.677375 	  
 11.264432 	 7.062163 	 7.785988 	 0.812125 	 0.701375 	 0.679500 	  
 12.946466 	 4.484091 	 7.361550 	 0.814937 	 0.699562 	 0.677438 	  
 9.558817 	 4.131964 	 6.190414 	 0.811937 	 0.701250 	 0.679500 	  
 5.141511 	 6.886099 	 5.860295 	 0.814438 	 0.699250 	 0.677250 	  
 1.785302 	 8.420366 	 2.944244 	 0.812063 	 0.701438 	 0.679500 	  
 0.622026 	 7.854448 	 1.639488 	 0.813625 	 0.699813 	 0.677438 	  
 7.153665 	 7.162771 	 -2.809257 	 0.813250 	 0.701813 	 0.679438 	  
 14.612781 	 6.948979 	 0.201113 	 0.813063 	 0.699875 	 0.677375 	  
 15.422358 	 6.559125 	 1.254350 	 0.814750 	 0.701875 	 0.678875 	  
 12.042569 	 5.502744 	 2.063927 	 0.812500 	 0.699937 	 0.677625 	  
 9.040059 	 3.628926 	 -0.427685 	 0.815000 	 0.701875 	 0.678250 	  
 6.265488 	 2.346178 	 0.570532 	 0.812125 	 0.700187 	 0.679188 	  
 5.550230 	 2.220419 	 0.460492 	 0.815063 	 0.701625 	 0.677687 	  
 9.810336 	 4.458939 	 -0.624184 	 0.812250 	 0.699875 	 0.679438 	  
 13.795343 	 5.125465 	 1.002830 	 0.814937 	 0.700750 	 0.677500 	  
 15.666017 	 5.842295 	 1.820268 	 0.812125 	 0.700063 	 0.679500 	  
 15.202279 	 7.741265 	 2.621985 	 0.815063 	 0.700313 	 0.677438 	  
 11.602410 	 8.697038 	 1.733808 	 0.812000 	 0.700813 	 0.679500 	  
 6.619187 	 8.583854 	 4.657719 	 0.814937 	 0.699875 	 0.677438 	  
 5.518790 	 8.520974 	 3.290083 	 0.812250 	 0.701562 	 0.679500 	  
 10.336955 	 8.483246 	 3.926741 	 0.814813 	 0.699813 	 0.677375 	  
 14.487021 	 8.785069 	 3.549462 	 0.811937 	 0.701813 	 0.679625 	  
 14.683520 	 9.086892 	 2.590545 	 0.813937 	 0.699625 	 0.677375 	  
 12.074009 	 10.118121 	 1.953887 	 0.812375 	 0.701500 	 0.679563 	  
 7.051485 	 10.759495 	 2.433346 	 0.813312 	 0.699750 	 0.677500 	  
 1.840322 	 10.696615 	 4.626279 	 0.813125 	 0.701625 	 0.679500 	  
 2.728499 	 9.703114 	 2.016767 	 0.813000 	 0.699625 	 0.677375 	  
 11.445211 	 10.168425 	 4.249000 	 0.814625 	 0.701562 	 0.678750 	  
 15.508818 	 11.652388 	 6.473373 	 0.812500 	 0.699750 	 0.677438 	  
 11.618130 	 11.111622 	 5.011417 	 0.815000 	 0.701438 	 0.678438 	  
 5.338011 	 9.288108 	 5.121457 	 0.812375 	 0.699625 	 0.677563 	  
 0.598446 	 7.716113 	 3.077864 	 0.814875 	 0.701750 	 0.678188 	  
 -2.632003 	 7.728689 	 2.842064 	 0.812188 	 0.699438 	 0.679000 	  
 -0.053932 	 6.559125 	 4.366899 	 0.814875 	 0.701000 	 0.677813 	  
 5.000032 	 5.817143 	 1.749528 	 0.812000 	 0.699187 	 0.679375 	  
 8.945739 	 5.288953 	 1.002830 	 0.815063 	 0.700500 	 0.677438 	  
 10.533454 	 5.515320 	 1.725948 	 0.812063 	 0.699438 	 0.679375 	  
 7.908222 	 5.603352 	 2.716305 	 0.815000 	 0.700375 	 0.677438 	  
 3.915355 	 6.118966 	 0.633412 	 0.812188 	 0.700750 	 0.679438 	  
 4.787812 	 7.175347 	 0.680571 	 0.815000 	 0.699750 	 0.677375 	  
 13.142965 	 7.816720 	 1.073570 	 0.812063 	 0.701688 	 0.679563 	  
 18.762847 	 6.634580 	 1.285789 	 0.814438 	 0.699937 	 0.677375 	  
 20.342702 	 3.880445 	 3.101444 	 0.812438 	 0.702000 	 0.679563 	  
 17.049373 	 2.874368 	 6.544112 	 0.813375 	 0.699750 	 0.677500 	  
 12.396268 	 5.993206 	 4.531959 	 0.813438 	 0.701562 	 0.679500 	  
 8.002542 	 8.055664 	 3.816701 	 0.813063 	 0.699625 	 0.677375 	  
 8.890719 	 6.181846 	 5.797415 	 0.813438 	 0.701813 	 0.679500 	  
 14.722820 	 5.892599 	 6.206134 	 0.812813 	 0.699813 	 0.677375 	  
 19.894684 	 7.150195 	 4.516239 	 0.814813 	 0.701625 	 0.678687 	  
 20.193363 	 8.520974 	 3.612342 	 0.812562 	 0.699500 	 0.677625 	  
 17.387352 	 8.935981 	 2.669145 	 0.815000 	 0.701688 	 0.678312 	  
 12.490588 	 8.596430 	 -0.317645 	 0.812250 	 0.699750 	 0.678063 	  
 6.847126 	 6.584276 	 0.130373 	 0.814937 	 0.701688 	 0.678063 	  
 5.998249 	 6.408213 	 1.207190 	 0.812063 	 0.699625 	 0.679375 	  
 9.818196 	 5.980630 	 2.480506 	 0.815063 	 0.701313 	 0.677563 	  
 13.370905 	 5.905175 	 3.423703 	 0.812188 	 0.699750 	 0.679438 	  
 12.655647 	 7.313682 	 -1.017183 	 0.815000 	 0.700875 	 0.677625 	  
 8.269781 	 9.677962 	 -0.671344 	 0.812188 	 0.700438 	 0.679438 	  
 0.449107 	 8.256879 	 -1.921080 	 0.815000 	 0.700187 	 0.677375 	  
 -5.500894 	 6.068662 	 -0.498425 	 0.812000 	 0.701438 	 0.679625 	  
 -4.251158 	 6.056086 	 0.578392 	 0.814937 	 0.699813 	 0.677250 	  
 0.739926 	 6.710036 	 6.434073 	 0.812125 	 0.701375 	 0.679563 	  
 3.050758 	 6.873523 	 5.270797 	 0.813500 	 0.699625 	 0.677500 	  
 2.822819 	 6.848372 	 4.382619 	 0.812500 	 0.701625 	 0.679500 	  
 0.952145 	 6.911251 	 8.108247 	 0.813375 	 0.699438 	 0.677312 	  
 0.142568 	 8.131119 	 7.998208 	 0.812688 	 0.701375 	 0.679500 	  
 0.268327 	 8.332335 	 7.141470 	 0.812875 	 0.699625 	 0.677312 	  
 5.416610 	 6.860948 	 4.186120 	 0.813875 	 0.701375 	 0.679188 	  
 10.431274 	 5.766839 	 5.813135 	 0.812562 	 0.699438 	 0.677438 	  
 12.569187 	 5.955478 	 5.066437 	 0.814625 	 0.701250 	 0.678500 	  
 11.083652 	 8.043088 	 7.306530 	 0.812375 	 0.699375 	 0.677750 	  
 8.356241 	 9.527051 	 4.547679 	 0.814937 	 0.701250 	 0.678188 	  
 4.827112 	 8.986285 	 1.403689 	 0.812125 	 0.699937 	 0.679063 	  
 4.528433 	 6.005782 	 3.148603 	 0.815188 	 0.701625 	 0.677563 	  
 10.989332 	 3.591198 	 1.340809 	 0.812125 	 0.699688 	 0.679500 	  
 16.687814 	 3.151040 	 0.798471 	 0.815063 	 0.700625 	 0.677500 	  
 16.939333 	 5.653655 	 0.562672 	 0.812250 	 0.700125 	 0.679500 	  
 15.045079 	 6.018358 	 2.543385 	 0.815063 	 0.700063 	 0.677500 	  
 12.577047 	 4.911674 	 0.892791 	 0.812063 	 0.701813 	 0.679500 	  
 7.696003 	 3.364831 	 3.973901 	 0.814937 	 0.699813 	 0.677375 	  
 6.084708 	 3.289375 	 1.073570 	 0.812188 	 0.701688 	 0.679500 	  
 10.061855 	 3.301951 	 -0.372665 	 0.813312 	 0.699813 	 0.677563 	  
 14.526321 	 2.861792 	 2.920664 	 0.813250 	 0.701688 	 0.679438 	  
 12.569187 	 2.547393 	 2.661285 	 0.812813 	 0.699688 	 0.677375 	  
 7.696003 	 3.125888 	 4.327600 	 0.814750 	 0.701375 	 0.678563 	  
 3.317997 	 4.207420 	 7.267230 	 0.812188 	 0.699750 	 0.677813 	  
 3.278697 	 5.917751 	 4.673438 	 0.815000 	 0.701562 	 0.678063 	  
 6.021829 	 9.501899 	 3.282223 	 0.812125 	 0.699750 	 0.678750 	  
 11.594550 	 11.073894 	 4.398339 	 0.814875 	 0.701500 	 0.677750 	  
 15.076519 	 10.294184 	 4.351180 	 0.812188 	 0.699750 	 0.679312 	  
 16.066876 	 9.350987 	 5.616635 	 0.815000 	 0.701438 	 0.677687 	  
 13.174405 	 9.803722 	 3.989621 	 0.812125 	 0.699688 	 0.679375 	  
 7.114365 	 10.243881 	 2.362606 	 0.815063 	 0.700750 	 0.677375 	  
 1.950362 	 11.174502 	 2.794905 	 0.812125 	 0.700250 	 0.679438 	  
 4.889992 	 11.275109 	 4.036781 	 0.815000 	 0.700063 	 0.677500 	  
 13.732464 	 11.086470 	 4.131100 	 0.812312 	 0.701313 	 0.679500 	  
 18.747127 	 10.507976 	 1.230770 	 0.815000 	 0.699562 	 0.677312 	  
 18.314829 	 11.300261 	 3.030704 	 0.811937 	 0.701375 	 0.679625 	  
 12.168329 	 10.935558 	 5.019277 	 0.814375 	 0.699688 	 0.677250 	  
 2.610600 	 9.803722 	 4.429779 	 0.812312 	 0.701375 	 0.679563 	  
 -1.130748 	 8.168847 	 5.294376 	 0.813063 	 0.699562 	 0.677375 	  
 5.786029 	 9.024013 	 3.494442 	 0.813875 	 0.701688 	 0.679125 	  
 13.253005 	 9.992361 	 3.879581 	 0.812813 	 0.699313 	 0.677312 	  
 13.598844 	 7.879600 	 2.692725 	 0.814562 	 0.701313 	 0.678687 	  
 9.645277 	 5.024857 	 5.459436 	 0.812375 	 0.699375 	 0.677625 	  
 6.194748 	 4.496667 	 4.791338 	 0.815063 	 0.701562 	 0.678063 	  
 2.209741 	 6.395637 	 4.500519 	 0.812250 	 0.699688 	 0.679000 	  
 1.973942 	 6.923827 	 4.814918 	 0.815000 	 0.701813 	 0.677813 	  
 9.142238 	 5.515320 	 1.930307 	 0.812250 	 0.699813 	 0.679500 	  
 17.002213 	 4.433787 	 5.050717 	 0.815250 	 0.700313 	 0.677438 	  
 18.039730 	 4.383484 	 2.252566 	 0.812125 	 0.700500 	 0.679500 	  
 13.551684 	 3.654078 	 6.897811 	 0.815250 	 0.700250 	 0.677375 	  
 7.240125 	 2.736033 	 6.394773 	 0.812188 	 0.701438 	 0.679438 	  
 3.899635 	 2.270722 	 7.691669 	 0.815063 	 0.699937 	 0.677563 	  
 8.261921 	 3.515742 	 7.094311 	 0.812312 	 0.701750 	 0.679500 	  
 15.595278 	 4.861370 	 2.614125 	 0.814625 	 0.699937 	 0.677312 	  
 19.195146 	 5.678807 	 2.315446 	 0.812000 	 0.701750 	 0.679688 	  
 17.560271 	 6.571700 	 3.227203 	 0.813688 	 0.700000 	 0.677375 	  
 13.127245 	 7.037011 	 1.859568 	 0.812875 	 0.701562 	 0.679500 	  
 6.792106 	 7.753841 	 3.447282 	 0.813125 	 0.699562 	 0.677500 	  
 2.304061 	 9.539627 	 2.983544 	 0.813937 	 0.701688 	 0.679375 	  
 4.261194 	 11.149350 	 0.381892 	 0.812813 	 0.699562 	 0.677250 	  
 12.121169 	 10.319336 	 0.515512 	 0.814937 	 0.701313 	 0.678500 	  
 15.925396 	 9.514475 	 1.812408 	 0.812312 	 0.699750 	 0.677813 	  
 13.449504 	 10.281608 	 2.228986 	 0.815125 	 0.701375 	 0.678063 	  
 9.079359 	 11.300261 	 0.020334 	 0.812250 	 0.699500 	 0.678875 	  
 5.212251 	 9.791146 	 2.370466 	 0.814937 	 0.701500 	 0.677750 	  
 0.849965 	 7.879600 	 -1.056483 	 0.812312 	 0.699625 	 0.679438 	  
 0.763506 	 6.420789 	 -2.149019 	 0.815063 	 0.700813 	 0.677500 	  
 4.449834 	 5.565624 	 -2.306219 	 0.812188 	 0.699875 	 0.679563 	  
 6.202608 	 5.942903 	 2.236846 	 0.815125 	 0.700250 	 0.677375 	  
 6.878566 	 8.973709 	 5.341536 	 0.812188 	 0.701125 	 0.679438 	  
 5.306571 	 10.960710 	 2.181827 	 0.814937 	 0.699875 	 0.677375 	  
 2.720639 	 11.727844 	 1.317229 	 0.812125 	 0.701375 	 0.679563 	  
 2.673479 	 12.759072 	 2.677005 	 0.813875 	 0.699500 	 0.677250 	  
 8.112582 	 12.796800 	 2.991404 	 0.812312 	 0.701562 	 0.679563 	  
 11.578831 	 10.897830 	 2.739885 	 0.813250 	 0.699750 	 0.677312 	  
 12.687087 	 9.024013 	 3.486582 	 0.813875 	 0.701375 	 0.679125 	  
 10.321235 	 9.476747 	 5.451576 	 0.812500 	 0.699500 	 0.677500 	  
 4.622753 	 9.803722 	 4.932818 	 0.815000 	 0.701688 	 0.678375 	  
 -1.515887 	 7.678385 	 3.227203 	 0.812500 	 0.699750 	 0.677750 	  
 0.315487 	 5.339256 	 3.038564 	 0.815063 	 0.701750 	 0.678063 	  
 8.678500 	 5.842295 	 2.818484 	 0.812250 	 0.699875 	 0.679563 	  
 15.516678 	 6.068662 	 6.379053 	 0.815250 	 0.701313 	 0.677438 	  
 17.033653 	 5.980630 	 3.502302 	 0.812312 	 0.700313 	 0.679500 	  
 14.628501 	 6.785492 	 4.099660 	 0.815063 	 0.700500 	 0.677438 	  
 11.374471 	 7.917328 	 1.914587 	 0.812375 	 0.701000 	 0.679500 	  
 8.497720 	 7.175347 	 4.657719 	 0.815250 	 0.700438 	 0.677438 	  
 9.385898 	 5.490168 	 3.502302 	 0.812125 	 0.702187 	 0.679563 	  
 13.095806 	 4.157116 	 2.496226 	 0.815312 	 0.700562 	 0.677438 	  
 16.758554 	 4.723034 	 4.437639 	 0.812125 	 0.702063 	 0.679500 	  
 15.988276 	 5.364408 	 2.590545 	 0.814250 	 0.700250 	 0.677438 	  
 11.877510 	 4.949402 	 -2.078280 	 0.812125 	 0.701875 	 0.679500 	  
 6.391247 	 5.351832 	 3.651642 	 0.813562 	 0.699750 	 0.677375 	  
 4.764233 	 6.508821 	 5.600915 	 0.813250 	 0.701625 	 0.679500 	  
 10.431274 	 6.206998 	 4.940678 	 0.812875 	 0.699875 	 0.677500 	  
 17.693891 	 6.961555 	 3.706662 	 0.814813 	 0.701750 	 0.678687 	  
 19.336625 	 8.043088 	 3.219343 	 0.812438 	 0.699562 	 0.677750 	  
 15.815357 	 7.426866 	 3.871721 	 0.815000 	 0.701688 	 0.678125 	  
 7.208685 	 7.452018 	 3.793121 	 0.812438 	 0.699875 	 0.678312 	  
 -0.894949 	 8.445518 	 4.500519 	 0.815000 	 0.701562 	 0.678000 	  
 -2.168265 	 8.935981 	 3.266503 	 0.812125 	 0.699500 	 0.679312 	  
 6.021829 	 7.854448 	 4.469079 	 0.815125 	 0.701375 	 0.677687 	  
 12.388408 	 6.672308 	 4.138960 	 0.812250 	 0.699313 	 0.679438 	  
 12.522027 	 6.370485 	 4.296160 	 0.815000 	 0.700688 	 0.677563 	  
 9.598117 	 7.841872 	 5.396556 	 0.812188 	 0.699625 	 0.679375 	  
 3.545937 	 7.527473 	 6.787772 	 0.815063 	 0.700000 	 0.677250 	  
 -3.205782 	 6.860948 	 5.490876 	 0.812063 	 0.700625 	 0.679563 	  
 -1.775266 	 6.521397 	 4.421919 	 0.815063 	 0.700000 	 0.677438 	  
 6.965025 	 7.137619 	 5.192197 	 0.812188 	 0.701313 	 0.679438 	  
 11.547391 	 7.640657 	 2.716305 	 0.815000 	 0.699875 	 0.677500 	  
 10.446994 	 7.288530 	 2.559105 	 0.812063 	 0.701625 	 0.679500 	  
 7.523084 	 6.571700 	 1.490149 	 0.815125 	 0.699937 	 0.677312 	  
 4.229754 	 6.609428 	 0.987110 	 0.812375 	 0.701625 	 0.679625 	  
 1.250824 	 6.395637 	 1.678788 	 0.813562 	 0.700000 	 0.677375 	  
 4.441974 	 4.584699 	 -1.166523 	 0.813688 	 0.702063 	 0.679375 	  
 10.533454 	 1.164038 	 -0.034686 	 0.812750 	 0.699937 	 0.677375 	  
 14.455581 	 -1.049331 	 2.582685 	 0.814937 	 0.702063 	 0.678687 	  
 13.850363 	 -1.514641 	 2.629845 	 0.812438 	 0.699813 	 0.677875 	  
 11.209412 	 -2.005104 	 4.154680 	 0.815125 	 0.701562 	 0.677937 	  
 6.713506 	 -1.263122 	 3.879581 	 0.812188 	 0.699937 	 0.679188 	  
 4.151155 	 -0.018102 	 4.351180 	 0.815250 	 0.701813 	 0.677750 	  
 7.303004 	 0.799335 	 1.749528 	 0.812250 	 0.699937 	 0.679438 	  
 13.803203 	 1.063430 	 -0.215466 	 0.815000 	 0.701438 	 0.677625 	  
 16.491315 	 1.742532 	 2.315446 	 0.812438 	 0.699875 	 0.679438 	  
 15.398778 	 2.056931 	 1.057850 	 0.815188 	 0.700500 	 0.677438 	  
 11.460931 	 2.698305 	 0.059633 	 0.812188 	 0.700625 	 0.679563 	  
 6.234048 	 3.993629 	 2.708445 	 0.815188 	 0.700313 	 0.677375 	  
 5.589530 	 5.779415 	 0.955671 	 0.812312 	 0.701562 	 0.679438 	  
 11.578831 	 6.471093 	 1.733808 	 0.815063 	 0.699875 	 0.677500 	  
 16.522755 	 5.729111 	 0.562672 	 0.812188 	 0.701625 	 0.679625 	  
 16.617074 	 4.848794 	 1.065710 	 0.814188 	 0.700000 	 0.677375 	  
 12.930746 	 4.911674 	 2.865644 	 0.812438 	 0.701625 	 0.679625 	  
 6.517007 	 5.502744 	 2.621985 	 0.813125 	 0.699562 	 0.677312 	  
 1.926782 	 6.056086 	 3.863861 	 0.814312 	 0.701688 	 0.679063 	  
 3.828896 	 6.118966 	 3.966041 	 0.812813 	 0.699625 	 0.677312 	  
 9.511657 	 5.238649 	 1.435129 	 0.814875 	 0.701625 	 0.678438 	  
 12.199768 	 5.641079 	 5.200057 	 0.812312 	 0.699625 	 0.678063 	  
 12.561327 	 7.187922 	 3.667362 	 0.815125 	 0.701438 	 0.677875 	  
 9.244418 	 9.904330 	 4.799198 	 0.812188 	 0.699500 	 0.679250 	  
 2.830679 	 10.897830 	 5.011417 	 0.815063 	 0.701250 	 0.677563 	  
 -1.201488 	 10.633735 	 6.693452 	 0.812250 	 0.699438 	 0.679375 	  
 1.926782 	 10.218729 	 3.871721 	 0.815000 	 0.700375 	 0.677500 	  
 8.945739 	 11.325413 	 3.533742 	 0.812125 	 0.700125 	 0.679438 	  
 11.060072 	 10.507976 	 8.116107 	 0.815063 	 0.699937 	 0.677375 	  
 9.692437 	 8.873101 	 3.368683 	 0.812188 	 0.701313 	 0.679563 	  
 6.941446 	 7.829296 	 6.709172 	 0.815250 	 0.700000 	 0.677500 	  
 4.292634 	 8.634158 	 3.745961 	 0.812438 	 0.701562 	 0.679500 	  
 2.304061 	 8.068240 	 -2.455558 	 0.814562 	 0.699688 	 0.677438 	  
 7.397324 	 7.477170 	 -2.243339 	 0.812875 	 0.701750 	 0.679563 	  
 16.601354 	 7.992784 	 1.859568 	 0.813125 	 0.699813 	 0.677312 	  
 20.271962 	 9.300684 	 0.326873 	 0.814937 	 0.701375 	 0.678687 	  
 18.047590 	 9.979785 	 4.869938 	 0.812500 	 0.699875 	 0.677687 	  
 13.708884 	 9.162348 	 2.111087 	 0.815250 	 0.701500 	 0.678063 	  
 7.743163 	 8.231727 	 4.641999 	 0.812375 	 0.699688 	 0.679000 	  
 5.597390 	 7.502321 	 5.034997 	 0.815188 	 0.701750 	 0.677937 	  
 12.223348 	 8.898253 	 2.519805 	 0.812438 	 0.699875 	 0.679500 	  
 20.193363 	 9.514475 	 0.452632 	 0.815250 	 0.701000 	 0.677375 	  
 21.726058 	 8.193999 	 4.429779 	 0.812250 	 0.700250 	 0.679438 	  
 16.939333 	 6.672308 	 2.574825 	 0.815312 	 0.700438 	 0.677500 	  
 9.629557 	 7.665809 	 8.501246 	 0.812188 	 0.701187 	 0.679438 	  
 4.363374 	 8.923405 	 4.382619 	 0.815125 	 0.700187 	 0.677438 	  
 5.864629 	 8.671886 	 5.388696 	 0.812125 	 0.701750 	 0.679563 	  
 10.305515 	 7.640657 	 4.138960 	 0.815125 	 0.700000 	 0.677375 	  
 10.957893 	 7.326258 	 9.963201 	 0.812063 	 0.701813 	 0.679625 	  
 10.612054 	 7.338834 	 6.237573 	 0.813625 	 0.700000 	 0.677375 	  
 9.519517 	 7.376562 	 5.200057 	 0.812750 	 0.701500 	 0.679438 	  
 3.490917 	 7.037011 	 5.577336 	 0.813188 	 0.699688 	 0.677375 	  
 -2.836363 	 6.672308 	 1.710228 	 0.814312 	 0.701625 	 0.679063 	  
 -3.535901 	 6.722612 	 3.588762 	 0.812688 	 0.699625 	 0.677438 	  
 1.989662 	 6.785492 	 2.056067 	 0.815063 	 0.701375 	 0.678000 	  
 6.760666 	 8.923405 	 5.184337 	 0.812250 	 0.699562 	 0.678312 	  
 7.499504 	 10.457672 	 2.417626 	 0.815188 	 0.701375 	 0.677875 	  
 5.251551 	 10.445096 	 2.842064 	 0.812125 	 0.699500 	 0.679063 	  
 0.975725 	 9.212652 	 2.103227 	 0.814875 	 0.701375 	 0.677687 	  
 -1.720246 	 8.282031 	 0.751311 	 0.812125 	 0.699562 	 0.679438 	  
 1.250824 	 7.804144 	 1.592328 	 0.815188 	 0.700063 	 0.677375 	  
 7.342304 	 9.049164 	 0.759171 	 0.812188 	 0.700438 	 0.679500 	  
 11.115092 	 9.200076 	 1.592328 	 0.815063 	 0.700063 	 0.677438 	  
 9.857496 	 7.640657 	 1.238630 	 0.812438 	 0.701625 	 0.679500 	  
 4.214034 	 6.068662 	 0.649132 	 0.814937 	 0.700063 	 0.677500 	  
 0.519846 	 5.502744 	 3.007124 	 0.812688 	 0.701937 	 0.679563 	  
 3.695276 	 4.056509 	 1.215050 	 0.813063 	 0.699875 	 0.677375 	  
 12.325528 	 4.031357 	 3.470862 	 0.815000 	 0.701875 	 0.678438 	  
 16.727114 	 5.993206 	 3.502302 	 0.812500 	 0.699688 	 0.677750 	  
 15.603137 	 7.037011 	 5.427996 	 0.815250 	 0.701438 	 0.678063 	  
 9.857496 	 6.596852 	 5.687375 	 0.812312 	 0.699688 	 0.679063 	  
 6.564167 	 6.747764 	 3.887441 	 0.815063 	 0.701438 	 0.677625 	  
 5.565950 	 7.929904 	 5.082157 	 0.812312 	 0.699625 	 0.679438 	  
 9.519517 	 8.131119 	 6.874231 	 0.815125 	 0.700500 	 0.677375 	  
 17.285172 	 8.131119 	 7.793848 	 0.812250 	 0.699688 	 0.679625 	  
 20.099043 	 6.798068 	 5.931034 	 0.815125 	 0.700313 	 0.677438 	  
 18.134049 	 5.754263 	 4.327600 	 0.812250 	 0.700500 	 0.679438 	  
 15.862517 	 5.892599 	 1.293649 	 0.815125 	 0.699937 	 0.677500 	  
 12.639927 	 7.540049 	 4.791338 	 0.812375 	 0.701500 	 0.679500 	  
 8.403401 	 8.344911 	 3.360823 	 0.815125 	 0.699688 	 0.677375 	  
 9.826056 	 8.395215 	 5.836715 	 0.812250 	 0.701750 	 0.679438 	  
 15.854657 	 8.520974 	 2.904944 	 0.813813 	 0.700000 	 0.677375 	  
 21.105120 	 8.558702 	 3.062144 	 0.812562 	 0.701313 	 0.679563 	  
 19.713904 	 7.829296 	 3.187903 	 0.813500 	 0.699375 	 0.677312 	  
 13.756043 	 6.798068 	 2.802765 	 0.813188 	 0.701438 	 0.679500 	  
 6.194748 	 6.269877 	 5.483016 	 0.813125 	 0.699187 	 0.677250 	  
 1.958222 	 6.936403 	 1.018550 	 0.814688 	 0.701250 	 0.678875 	  
 3.773876 	 7.502321 	 3.360823 	 0.812562 	 0.699438 	 0.677250 	  
 8.332661 	 8.307183 	 1.969607 	 0.815188 	 0.701187 	 0.678063 	  
 9.763176 	 8.785069 	 5.310096 	 0.812188 	 0.699250 	 0.678312 	  
 8.450561 	 7.238226 	 4.602699 	 0.814937 	 0.701250 	 0.678000 	  
 4.174734 	 7.011859 	 5.946754 	 0.812250 	 0.699313 	 0.679375 	  
 -0.596270 	 7.024435 	 3.549462 	 0.815250 	 0.700937 	 0.677625 	  
 -1.924606 	 7.602929 	 4.296160 	 0.812000 	 0.699500 	 0.679438 	  
 3.789596 	 7.175347 	 4.610559 	 0.815125 	 0.700688 	 0.677438 	  
 9.071499 	 7.263378 	 2.063927 	 0.812188 	 0.699313 	 0.679312 	  
 10.179755 	 6.961555 	 1.694508 	 0.815125 	 0.700438 	 0.677500 	  
 7.208685 	 6.508821 	 0.727731 	 0.812312 	 0.700063 	 0.679438 	  
 3.805316 	 4.094236 	 -2.471278 	 0.815312 	 0.699813 	 0.677312 	  
 2.076121 	 3.339679 	 -4.216193 	 0.812250 	 0.701375 	 0.679500 	  
 4.261194 	 2.031779 	 -5.230129 	 0.813688 	 0.699750 	 0.677438 	  
 11.963969 	 0.032202 	 -2.054700 	 0.813250 	 0.701250 	 0.679375 	  
 16.538474 	 0.409480 	 -1.960380 	 0.812875 	 0.699438 	 0.677438 	  
 17.065093 	 1.880868 	 1.749528 	 0.815063 	 0.701250 	 0.678438 	  
 15.202279 	 3.742110 	 3.014984 	 0.812562 	 0.699625 	 0.678188 	  
 11.460931 	 4.811066 	 2.755605 	 0.815188 	 0.701313 	 0.678000 	  
 6.815686 	 4.194844 	 3.258643 	 0.812188 	 0.699688 	 0.679312 	  
 8.403401 	 4.219996 	 4.893518 	 0.815250 	 0.701250 	 0.677563 	  
 15.194419 	 7.225650 	 4.225420 	 0.812250 	 0.699375 	 0.679438 	  
 18.990787 	 9.262956 	 3.431562 	 0.815188 	 0.700187 	 0.677500 	  
 17.120113 	 9.904330 	 2.079647 	 0.812312 	 0.699937 	 0.679438 	  
 14.133322 	 10.055241 	 3.007124 	 0.815188 	 0.699937 	 0.677250 	  
 7.530944 	 9.967209 	 3.510162 	 0.812188 	 0.701125 	 0.679563 	  
 1.250824 	 8.508398 	 4.241140 	 0.815188 	 0.699500 	 0.677312 	  
 3.058618 	 8.131119 	 5.404416 	 0.812312 	 0.701375 	 0.679500 	  
 7.672423 	 8.772493 	 2.881364 	 0.814562 	 0.699688 	 0.677438 	  
 10.729953 	 9.225228 	 7.330110 	 0.812375 	 0.701688 	 0.679563 	  
 10.352674 	 9.602507 	 4.862078 	 0.813562 	 0.699500 	 0.677312 	  
 7.287284 	 10.206153 	 5.820995 	 0.812937 	 0.701125 	 0.679563 	  
 2.854259 	 9.992361 	 7.448009 	 0.813188 	 0.699625 	 0.677312 	  
 4.127575 	 9.740842 	 7.141470 	 0.814188 	 0.701187 	 0.679000 	  
 11.036492 	 10.407368 	 6.158974 	 0.812562 	 0.699063 	 0.677438 	  
 16.491315 	 9.954634 	 5.427996 	 0.815063 	 0.701438 	 0.678250 	  
 16.404855 	 9.162348 	 3.934601 	 0.812375 	 0.699313 	 0.678000 	  
 12.325528 	 8.935981 	 5.097877 	 0.815063 	 0.701063 	 0.678000 	  
 5.361591 	 8.181423 	 3.714522 	 0.812063 	 0.699250 	 0.679063 	  
 -0.470510 	 5.993206 	 5.703095 	 0.815125 	 0.701125 	 0.677687 	  
 -0.792769 	 5.037433 	 6.638432 	 0.812250 	 0.699313 	 0.679312 	  
 6.234048 	 5.666231 	 5.883875 	 0.815000 	 0.700500 	 0.677500 	  
 12.349108 	 6.546549 	 5.003557 	 0.812312 	 0.699375 	 0.679312 	  
 12.993626 	 5.376984 	 4.791338 	 0.815250 	 0.700500 	 0.677438 	  
 8.725660 	 3.830141 	 3.604482 	 0.812312 	 0.700438 	 0.679500 	  
 3.404457 	 3.063008 	 2.621985 	 0.815188 	 0.700500 	 0.677438 	  
 1.187944 	 2.648001 	 4.854218 	 0.812312 	 0.701375 	 0.679438 	  
 5.550230 	 1.880868 	 3.667362 	 0.815250 	 0.699937 	 0.677438 	  
 14.636361 	 2.484514 	 2.826344 	 0.812250 	 0.701500 	 0.679375 	  
 20.216943 	 3.465439 	 6.457653 	 0.815000 	 0.699562 	 0.677188 	  
 21.309479 	 5.540472 	 -0.411965 	 0.812188 	 0.701375 	 0.679625 	  
 18.880747 	 7.829296 	 -5.324449 	 0.814000 	 0.699562 	 0.677375 	  
 13.323745 	 7.628081 	 -6.165466 	 0.812875 	 0.701562 	 0.679500 	  
 9.330878 	 5.100313 	 -8.240500 	 0.812937 	 0.699438 	 0.677375 	  
 13.150825 	 4.723034 	 -2.156879 	 0.814937 	 0.701438 	 0.678500 	  
 16.373415 	 5.553048 	 1.631628 	 0.812500 	 0.699625 	 0.677875 	  
 16.593494 	 5.817143 	 1.026410 	 0.815125 	 0.701438 	 0.678063 	  
 15.571698 	 5.553048 	 -2.314079 	 0.812250 	 0.699375 	 0.679063 	  
 12.451288 	 4.936826 	 1.828128 	 0.815250 	 0.701000 	 0.677500 	  
 5.251551 	 4.672731 	 4.901378 	 0.812250 	 0.699250 	 0.679312 	  
 2.060401 	 3.779838 	 6.992131 	 0.815125 	 0.701063 	 0.677625 	  
 7.947522 	 3.716958 	 4.594839 	 0.812375 	 0.699625 	 0.679500 	  
 14.636361 	 4.308028 	 4.555539 	 0.815250 	 0.700688 	 0.677375 	  
 16.082596 	 5.980630 	 4.626279 	 0.812250 	 0.699750 	 0.679375 	  
 13.339465 	 7.992784 	 5.868155 	 0.815188 	 0.700187 	 0.677500 	  
 8.199041 	 8.709614 	 3.808841 	 0.812438 	 0.700500 	 0.679500 	  
 0.244747 	 7.854448 	 5.184337 	 0.815063 	 0.699875 	 0.677312 	  
 -2.364764 	 7.678385 	 4.775618 	 0.812125 	 0.701187 	 0.679438 	  
 4.379094 	 8.609006 	 1.498009 	 0.815188 	 0.699688 	 0.677250 	  
 9.488077 	 9.854026 	 2.614125 	 0.812125 	 0.701000 	 0.679438 	  
 8.772820 	 7.980208 	 2.449066 	 0.814188 	 0.699063 	 0.677438 	  
 4.559873 	 5.226073 	 4.665579 	 0.812188 	 0.701125 	 0.679438 	  
 -0.313311 	 5.138041 	 0.114653 	 0.813188 	 0.699125 	 0.677312 	  
 -4.235438 	 7.049587 	 2.897084 	 0.813063 	 0.701125 	 0.679438 	  
 -2.718463 	 8.520974 	 1.120730 	 0.812750 	 0.699063 	 0.677188 	  
 3.805316 	 9.250380 	 2.684865 	 0.815063 	 0.700937 	 0.678312 	  
 6.485567 	 9.916906 	 1.946027 	 0.812312 	 0.699125 	 0.677750 	  
 5.322291 	 9.237804 	 2.621985 	 0.815063 	 0.701500 	 0.677937 	  
 3.003598 	 9.200076 	 4.249000 	 0.812375 	 0.699375 	 0.679188 	  
 -0.486230 	 9.288108 	 2.323306 	 0.815188 	 0.701187 	 0.677750 	  
 -1.476587 	 9.464171 	 5.286516 	 0.812438 	 0.699313 	 0.679500 	  
 4.976452 	 8.822797 	 3.054284 	 0.815312 	 0.700125 	 0.677438 	  
 14.298382 	 8.017936 	 4.327600 	 0.812250 	 0.700250 	 0.679563 	  
 17.678171 	 7.502321 	 4.579119 	 0.815125 	 0.699750 	 0.677438 	  
 15.013639 	 8.634158 	 8.344047 	 0.812500 	 0.701063 	 0.679500 	  
 9.558817 	 9.350987 	 7.055011 	 0.815125 	 0.699750 	 0.677375 	  
 2.406240 	 8.344911 	 8.100387 	 0.812188 	 0.701813 	 0.679563 	  
 1.447323 	 7.477170 	 6.418353 	 0.815125 	 0.699750 	 0.677312 	  
 10.784973 	 8.483246 	 7.180770 	 0.812375 	 0.701562 	 0.679625 	  
 19.242306 	 9.552203 	 6.677732 	 0.814188 	 0.699500 	 0.677375 	  
 21.183719 	 9.841450 	 4.146820 	 0.812312 	 0.701438 	 0.679438 	  
 16.271235 	 9.828874 	 -0.309785 	 0.814000 	 0.699500 	 0.677438 	  
 7.538804 	 9.891754 	 -2.699218 	 0.812312 	 0.701375 	 0.679625 	  
 0.291907 	 8.847949 	 -0.459125 	 0.813188 	 0.699875 	 0.677375 	  
 2.964298 	 7.904752 	 3.871721 	 0.814562 	 0.701313 	 0.678875 	  
 9.668857 	 7.238226 	 5.883875 	 0.812625 	 0.699187 	 0.677375 	  
 13.378765 	 7.074739 	 7.495169 	 0.815125 	 0.701187 	 0.678375 	  
 12.529887 	 8.709614 	 5.703095 	 0.812500 	 0.699125 	 0.677687 	  
 8.560600 	 10.067817 	 7.620929 	 0.815125 	 0.701313 	 0.678188 	  
 1.785302 	 10.394792 	 5.561616 	 0.812312 	 0.699562 	 0.677875 	  
 -2.317605 	 9.124620 	 0.987110 	 0.815188 	 0.701375 	 0.677937 	  
 1.588803 	 8.231727 	 -5.135810 	 0.812188 	 0.699313 	 0.678687 	  
 11.122952 	 7.112467 	 -7.886801 	 0.815000 	 0.701313 	 0.677563 	  
 14.463441 	 7.099891 	 -6.314806 	 0.812250 	 0.699125 	 0.679312 	  
 10.124735 	 6.370485 	 1.010690 	 0.815063 	 0.700063 	 0.677438 	  
 4.512713 	 6.533973 	 5.891735 	 0.812125 	 0.700813 	 0.679375 	  
 -0.171831 	 7.640657 	 8.933545 	 0.815188 	 0.699562 	 0.677250 	  
 0.456967 	 9.187500 	 4.170400 	 0.812125 	 0.700813 	 0.679438 	  
 7.247985 	 8.961133 	 5.593055 	 0.815000 	 0.699562 	 0.677375 	  
 14.966480 	 8.030512 	 3.580902 	 0.812188 	 0.701250 	 0.679563 	  
 18.149769 	 8.445518 	 3.070004 	 0.814500 	 0.699625 	 0.677375 	  
 15.736757 	 8.822797 	 5.168617 	 0.812375 	 0.701688 	 0.679625 	  
 9.928236 	 7.929904 	 3.266503 	 0.813500 	 0.699750 	 0.677250 	  
 5.809609 	 6.420789 	 5.718815 	 0.813312 	 0.701500 	 0.679438 	  
 7.067205 	 5.653655 	 3.879581 	 0.813188 	 0.699625 	 0.677375 	  
 13.787483 	 5.615928 	 2.299726 	 0.814688 	 0.701625 	 0.678875 	  
 17.890390 	 5.175769 	 3.156463 	 0.812750 	 0.699813 	 0.677438 	  
 19.014366 	 5.100313 	 3.439422 	 0.815125 	 0.701750 	 0.678250 	  
 16.530614 	 6.370485 	 3.478722 	 0.812312 	 0.700063 	 0.678687 	  
 12.262648 	 7.753841 	 4.484799 	 0.815188 	 0.701750 	 0.677813 	  
 8.191181 	 8.483246 	 3.761681 	 0.812312 	 0.699813 	 0.679375 	  
 8.953599 	 7.150195 	 2.669145 	 0.815000 	 0.701688 	 0.677625 	  
 15.312318 	 5.628504 	 6.410493 	 0.812375 	 0.699813 	 0.679312 	  
 20.775001 	 4.396060 	 0.303293 	 0.815188 	 0.700500 	 0.677375 	  
 19.478105 	 4.433787 	 -0.301925 	 0.812063 	 0.700750 	 0.679563 	  
 13.095806 	 3.578622 	 3.690942 	 0.815250 	 0.700750 	 0.677312 	  
 6.430547 	 3.075584 	 2.323306 	 0.812188 	 0.701562 	 0.679438 	  
 1.384444 	 3.276799 	 4.759898 	 0.815063 	 0.700375 	 0.677375 	  
 3.090058 	 4.584699 	 6.489093 	 0.812375 	 0.702063 	 0.679625 	  
 11.563111 	 5.867447 	 4.201840 	 0.814875 	 0.700063 	 0.677375 	  
 16.640654 	 6.445941 	 5.954614 	 0.812125 	 0.701937 	 0.679563 	  
 13.590984 	 7.049587 	 7.699529 	 0.813688 	 0.700125 	 0.677375 	  
 7.876782 	 7.615505 	 3.832421 	 0.812875 	 0.701813 	 0.679375 	  
 2.461260 	 6.961555 	 3.793121 	 0.812750 	 0.699562 	 0.677500 	  
 1.604523 	 6.295029 	 3.651642 	 0.814688 	 0.701562 	 0.678563 	  
 6.281208 	 7.439442 	 4.225420 	 0.812562 	 0.699562 	 0.677250 	  
 12.671367 	 8.445518 	 4.579119 	 0.815000 	 0.701562 	 0.678375 	  
 12.655647 	 8.370063 	 5.498736 	 0.812188 	 0.699875 	 0.677875 	  
 7.169385 	 7.426866 	 7.015711 	 0.815063 	 0.701500 	 0.677937 	  
 1.305844 	 6.986707 	 4.909238 	 0.812188 	 0.699313 	 0.678563 	  
 -2.380484 	 5.653655 	 3.753821 	 0.814813 	 0.701688 	 0.677813 	  
 -2.632003 	 6.458517 	 3.148603 	 0.812188 	 0.699500 	 0.679250 	  
 2.327640 	 7.137619 	 -1.897500 	 0.815125 	 0.700562 	 0.677500 	  
 6.469847 	 7.024435 	 -0.490565 	 0.812125 	 0.700313 	 0.679563 	  
 8.450561 	 5.188345 	 -1.826760 	 0.815312 	 0.700250 	 0.677375 	  
 8.010402 	 3.943325 	 1.435129 	 0.812250 	 0.701313 	 0.679563 	  
 5.526650 	 2.232995 	 0.696291 	 0.814937 	 0.699750 	 0.677500 	  
 1.856042 	 2.648001 	 2.032487 	 0.812188 	 0.701625 	 0.679500 	  
 3.042898 	 4.031357 	 1.442989 	 0.813500 	 0.699500 	 0.677250 	  
 13.174405 	 4.169692 	 0.114653 	 0.814438 	 0.701313 	 0.679000 	  
 19.910404 	 3.540894 	 1.655208 	 0.812750 	 0.699625 	 0.677375 	  
 19.823944 	 3.515742 	 2.684865 	 0.815125 	 0.701500 	 0.678438 	  
 15.893957 	 5.024857 	 3.195763 	 0.812312 	 0.699625 	 0.677813 	  
 12.215488 	 6.282453 	 3.934601 	 0.815125 	 0.701625 	 0.677875 	  
 8.167602 	 6.659732 	 4.398339 	 0.812250 	 0.699750 	 0.679188 	  
 8.914299 	 6.420789 	 5.325816 	 0.815125 	 0.701500 	 0.677625 	  
 14.487021 	 7.187922 	 6.064654 	 0.812063 	 0.699688 	 0.679500 	  
 19.588145 	 6.986707 	 8.013928 	 0.815125 	 0.700750 	 0.677250 	  
 18.621368 	 7.074739 	 3.997481 	 0.812188 	 0.700187 	 0.679438 	  
 15.013639 	 5.892599 	 2.842064 	 0.815188 	 0.700750 	 0.677438 	  
 7.971102 	 4.873946 	 5.034997 	 0.812375 	 0.701438 	 0.679438 	  
 1.258684 	 4.433787 	 5.247217 	 0.815188 	 0.700500 	 0.677375 	  
 4.206174 	 4.735610 	 5.404416 	 0.812125 	 0.701750 	 0.679563 	  
 12.411988 	 4.999706 	 5.938894 	 0.815188 	 0.700250 	 0.677312 	  
 15.673877 	 6.345333 	 4.241140 	 0.812250 	 0.702000 	 0.679438 	  
 13.512384 	 7.602929 	 5.380836 	 0.814562 	 0.700000 	 0.677438 	  
 9.943956 	 7.514897 	 3.478722 	 0.812125 	 0.701688 	 0.679500 	  
 5.353731 	 8.495822 	 3.863861 	 0.814125 	 0.699625 	 0.677250 	  
 2.256901 	 10.457672 	 1.505869 	 0.812188 	 0.701500 	 0.679500 	  
 3.585236 	 11.174502 	 5.255077 	 0.813063 	 0.699562 	 0.677312 	  
 8.073282 	 9.124620 	 7.416570 	 0.813875 	 0.701438 	 0.679125 	  
 11.350891 	 6.873523 	 4.429779 	 0.812750 	 0.699250 	 0.677375 	  
 10.234775 	 7.867024 	 3.816701 	 0.814562 	 0.701250 	 0.678750 	  
 4.520573 	 10.495400 	 4.901378 	 0.812562 	 0.699313 	 0.677188 	  
 -2.537684 	 9.426443 	 1.395829 	 0.815063 	 0.701250 	 0.678250 	  
 -3.598780 	 5.703959 	 2.001047 	 0.812188 	 0.699500 	 0.678250 	  
 2.791379 	 3.327103 	 -0.411965 	 0.815188 	 0.701438 	 0.677687 	  
 9.983256 	 4.043933 	 2.621985 	 0.812250 	 0.699438 	 0.679500 	  
 14.054722 	 5.150617 	 1.427269 	 0.815063 	 0.700562 	 0.677500 	  
 14.777840 	 6.257301 	 1.780968 	 0.812375 	 0.700313 	 0.679438 	  
