[MyosystemBr1 Versão 3.5.61]
[Informações gerais]
	[Descrição geral] = 
	[Número de amostras por canal] = 50001.000000
	[Duração] = 25.000000 seg
	[Taxa de amostragem por canal] = 2000 Hz
	[Número de canais]  = 6
	[Canais utilizados] = 2	3	4	9	10	11	
[Informações sobre canais]
	[canal 1]
		Tipo de eletrodo = Passivo
		Descrição = 
		Unidade = uV
		Freqüência = 2000
		Filtro passa alta = 20.000000 Hz
		Filtro passa baixa = 500.000000 Hz
		Ganho do eletrodo = 20.000000
		Ganho do eletromiógrafo = 397.584015
		Tempo = 25.000000
	[canal 2]
		Tipo de eletrodo = Ativo
		Descrição = 
		Unidade = uV
		Freqüência = 2000
		Filtro passa alta = 20.000000 Hz
		Filtro passa baixa = 500.000000 Hz
		Ganho do eletrodo = 20.000000
		Ganho do eletromiógrafo = 397.583984
		Tempo = 25.000000
	[canal 3]
		Tipo de eletrodo = Ativo
		Descrição = 
		Unidade = uV
		Freqüência = 2000
		Filtro passa alta = 20.000000 Hz
		Filtro passa baixa = 500.000000 Hz
		Ganho do eletrodo = 20.000000
		Ganho do eletromiógrafo = 248.489990
		Tempo = 25.000000
	[canal 4]
		Tipo de eletrodo = Ativo
		Descrição = 
		Unidade = uV
		Freqüência = 2000
		Filtro passa alta = 20.000000 Hz
		Filtro passa baixa = 500.000000 Hz
		Ganho do eletrodo = 20.000000
		Ganho do eletromiógrafo = 397.583984
		Tempo = 25.000000
	[canal 5]
		Tipo de eletrodo = Passivo
		Descrição = 
		Unidade = uV
		Freqüência = 2000
		Filtro passa alta = 20.000000 Hz
		Filtro passa baixa = 1000.000000 Hz
		Ganho do eletrodo = 20.000000
		Ganho do eletromiógrafo = 397.584015
		Tempo = 25.000000
	[canal 6]
		Tipo de eletrodo = Passivo
		Descrição = 
		Unidade = uV
		Freqüência = 2000
		Filtro passa alta = 20.000000 Hz
		Filtro passa baixa = 1000.000000 Hz
		Ganho do eletrodo = 20.000000
		Ganho do eletromiógrafo = 397.584015
		Tempo = 25.000000
	[canal 7]
		Tipo de eletrodo = Passivo
		Descrição = 
		Unidade = uV
		Freqüência = 2000
		Filtro passa alta = 20.000000 Hz
		Filtro passa baixa = 1000.000000 Hz
		Ganho do eletrodo = 20.000000
		Ganho do eletromiógrafo = 397.584015
		Tempo = 25.000000
	[canal 8]
		Tipo de eletrodo = Passivo
		Descrição = 
		Unidade = uV
		Freqüência = 2000
		Filtro passa alta = 20.000000 Hz
		Filtro passa baixa = 1000.000000 Hz
		Ganho do eletrodo = 20.000000
		Ganho do eletromiógrafo = 397.584015
		Tempo = 25.000000
	[canal 9]
		Fonte de sinal auxiliar = Entrada em volts
		Descrição = 
		Unidade = V
		Freqüência = 2000
		Filtro passa alta = 0.000000 Hz
		Filtro passa baixa = 100000.000000 Hz
		Ganho do eletrodo = 1.000000
		Ganho do eletromiógrafo = 1.000000
		Tempo = 25.000000
	[canal 10]
		Fonte de sinal auxiliar = Entrada em volts
		Descrição = 
		Unidade = V
		Freqüência = 2000
		Filtro passa alta = 0.000000 Hz
		Filtro passa baixa = 100000.000000 Hz
		Ganho do eletrodo = 1.000000
		Ganho do eletromiógrafo = 1.000000
		Tempo = 25.000000
	[canal 11]
		Fonte de sinal auxiliar = Entrada em volts
		Descrição = 
		Unidade = V
		Freqüência = 2000
		Filtro passa alta = 0.000000 Hz
		Filtro passa baixa = 100000.000000 Hz
		Ganho do eletrodo = 1.000000
		Ganho do eletromiógrafo = 1.000000
		Tempo = 25.000000
	[canal 12]
		Fonte de sinal auxiliar = Entrada em volts
		Descrição = 
		Unidade = V
		Freqüência = 2000
		Filtro passa alta = 0.000000 Hz
		Filtro passa baixa = 100000.000000 Hz
		Ganho do eletrodo = 1.000000
		Ganho do eletromiógrafo = 1.000000
		Tempo = 25.000000
[Dados]
14.880020 	 7.514897 	 6.717032 	 0.944625 	 0.705688 	 0.692625 	  
 16.003996 	 6.873523 	 8.399066 	 0.947000 	 0.707750 	 0.693188 	  
 22.284116 	 6.219574 	 11.692396 	 0.944375 	 0.705875 	 0.694438 	  
 31.024408 	 7.250802 	 11.723836 	 0.947375 	 0.706375 	 0.692500 	  
 30.041911 	 8.231727 	 4.814918 	 0.944375 	 0.706313 	 0.694562 	  
 19.737484 	 7.376562 	 4.995697 	 0.947125 	 0.706063 	 0.692625 	  
 13.394485 	 6.923827 	 6.606992 	 0.944438 	 0.707250 	 0.694500 	  
 16.224075 	 7.690961 	 4.531959 	 0.946750 	 0.705500 	 0.692562 	  
 20.382002 	 8.370063 	 6.072514 	 0.944312 	 0.707250 	 0.694688 	  
 20.554921 	 8.785069 	 6.921391 	 0.946250 	 0.705688 	 0.692500 	  
 18.534908 	 8.181423 	 5.066437 	 0.944750 	 0.707500 	 0.694750 	  
 13.378765 	 8.105968 	 5.828855 	 0.945250 	 0.705562 	 0.692500 	  
 7.106505 	 8.571278 	 5.876015 	 0.947000 	 0.707438 	 0.693875 	  
 4.685633 	 9.074316 	 4.044641 	 0.944688 	 0.705438 	 0.692688 	  
 9.024339 	 10.067817 	 1.773108 	 0.946937 	 0.707500 	 0.693312 	  
 10.281935 	 11.023590 	 0.609832 	 0.944500 	 0.705187 	 0.693875 	  
 7.035765 	 11.161926 	 3.266503 	 0.947250 	 0.707063 	 0.692625 	  
 1.651683 	 10.721767 	 1.144310 	 0.944312 	 0.705375 	 0.694562 	  
 -1.861726 	 10.281608 	 2.669145 	 0.947063 	 0.706250 	 0.692438 	  
 -5.720973 	 9.476747 	 2.732025 	 0.944312 	 0.706250 	 0.694375 	  
 -7.072889 	 8.068240 	 0.098933 	 0.947125 	 0.705562 	 0.692500 	  
 -1.806706 	 7.489745 	 1.395829 	 0.944375 	 0.707250 	 0.694562 	  
 2.610600 	 5.854871 	 3.808841 	 0.946063 	 0.705063 	 0.692438 	  
 3.986095 	 5.389560 	 1.380109 	 0.944875 	 0.707187 	 0.694562 	  
 2.673479 	 6.647156 	 0.884931 	 0.945125 	 0.705562 	 0.692438 	  
 -2.451224 	 6.508821 	 0.059633 	 0.946937 	 0.707438 	 0.693625 	  
 -10.004660 	 4.194844 	 -1.999680 	 0.944625 	 0.705562 	 0.692875 	  
 -10.311199 	 2.736033 	 -1.818901 	 0.947125 	 0.707750 	 0.693000 	  
 -0.918529 	 4.169692 	 -0.018966 	 0.944625 	 0.705562 	 0.694438 	  
 9.818196 	 5.389560 	 0.413332 	 0.947250 	 0.706562 	 0.692625 	  
 14.534181 	 6.659732 	 0.735591 	 0.944438 	 0.706187 	 0.694562 	  
 14.094022 	 6.005782 	 0.861351 	 0.947313 	 0.706125 	 0.692438 	  
 8.096862 	 5.163193 	 -0.506285 	 0.944375 	 0.707813 	 0.694625 	  
 1.101484 	 2.396482 	 3.596622 	 0.946188 	 0.705625 	 0.692500 	  
 1.132924 	 0.887367 	 4.028921 	 0.944937 	 0.707625 	 0.694500 	  
 5.243691 	 2.522242 	 4.288300 	 0.945250 	 0.705625 	 0.692438 	  
 8.568460 	 4.257724 	 -1.936800 	 0.946813 	 0.707625 	 0.693688 	  
 10.250495 	 4.169692 	 3.014984 	 0.944625 	 0.705500 	 0.693625 	  
 10.407694 	 3.666654 	 4.862078 	 0.947250 	 0.707375 	 0.692813 	  
 8.403401 	 4.861370 	 4.091800 	 0.944312 	 0.705375 	 0.694500 	  
 7.892502 	 4.823642 	 5.671655 	 0.947250 	 0.706688 	 0.692625 	  
 10.643494 	 3.364831 	 5.113597 	 0.944500 	 0.705562 	 0.694500 	  
 12.325528 	 2.321026 	 4.838498 	 0.947188 	 0.705875 	 0.692562 	  
 11.822490 	 2.622849 	 6.001774 	 0.944375 	 0.707000 	 0.694438 	  
 10.368394 	 3.654078 	 6.999991 	 0.947438 	 0.705562 	 0.692500 	  
 8.474141 	 4.685307 	 5.876015 	 0.944375 	 0.707500 	 0.694625 	  
 4.041115 	 5.276377 	 6.536252 	 0.946125 	 0.705625 	 0.692438 	  
 2.579160 	 5.314105 	 9.538763 	 0.944937 	 0.707375 	 0.694500 	  
 5.848909 	 3.893021 	 7.094311 	 0.945250 	 0.705313 	 0.692562 	  
 10.022556 	 2.685729 	 5.679515 	 0.946937 	 0.707250 	 0.693500 	  
 11.232992 	 2.383906 	 4.539819 	 0.944500 	 0.705438 	 0.693188 	  
 11.303731 	 3.012704 	 5.655935 	 0.947000 	 0.707250 	 0.693188 	  
 7.711723 	 6.458517 	 5.215777 	 0.944438 	 0.705313 	 0.694250 	  
 2.539860 	 7.829296 	 3.062144 	 0.947250 	 0.706438 	 0.692562 	  
 1.062185 	 6.672308 	 3.989621 	 0.944250 	 0.705562 	 0.694562 	  
 6.336227 	 5.452440 	 4.752038 	 0.947063 	 0.706000 	 0.692562 	  
 11.421631 	 5.741687 	 4.524099 	 0.944375 	 0.707063 	 0.694438 	  
 11.586690 	 6.144118 	 4.618419 	 0.947063 	 0.705562 	 0.692562 	  
 10.077575 	 7.816720 	 3.651642 	 0.944312 	 0.707438 	 0.694688 	  
 6.894286 	 9.552203 	 3.054284 	 0.945875 	 0.705562 	 0.692500 	  
 3.852476 	 10.558280 	 -2.070420 	 0.946313 	 0.707438 	 0.694250 	  
 5.055052 	 9.539627 	 -6.361966 	 0.944750 	 0.705688 	 0.692875 	  
 10.352674 	 7.879600 	 -0.985743 	 0.947313 	 0.707500 	 0.693000 	  
 13.575264 	 7.841872 	 0.908511 	 0.944500 	 0.705813 	 0.694500 	  
 12.427708 	 9.262956 	 5.412276 	 0.947250 	 0.706688 	 0.692688 	  
 9.330878 	 10.030089 	 6.764192 	 0.944375 	 0.706375 	 0.694500 	  
 6.988605 	 9.904330 	 3.690942 	 0.947375 	 0.706125 	 0.692625 	  
 7.012185 	 10.269032 	 6.111814 	 0.944312 	 0.707750 	 0.694625 	  
 12.427708 	 9.262956 	 7.888168 	 0.946438 	 0.705813 	 0.692500 	  
 20.256242 	 9.577355 	 5.852435 	 0.944750 	 0.707750 	 0.694688 	  
 23.942570 	 12.017091 	 7.353690 	 0.945313 	 0.705813 	 0.692625 	  
 22.158356 	 14.305915 	 7.620929 	 0.946688 	 0.707625 	 0.693937 	  
 16.986493 	 15.739575 	 3.125023 	 0.944813 	 0.705562 	 0.692750 	  
 12.207628 	 15.022745 	 5.781695 	 0.947063 	 0.707625 	 0.693000 	  
 9.378038 	 12.922560 	 3.777401 	 0.944562 	 0.705500 	 0.694500 	  
 11.091512 	 10.658887 	 6.347613 	 0.947313 	 0.706625 	 0.692562 	  
 14.942900 	 10.608583 	 7.636649 	 0.944375 	 0.705875 	 0.694750 	  
 16.703534 	 10.772071 	 8.163267 	 0.947250 	 0.706375 	 0.692625 	  
 15.956836 	 10.482824 	 5.899595 	 0.944562 	 0.707250 	 0.694500 	  
 11.995409 	 10.193577 	 6.850651 	 0.947188 	 0.705500 	 0.692625 	  
 8.662780 	 11.903907 	 5.490876 	 0.944375 	 0.707562 	 0.694625 	  
 7.923942 	 13.174079 	 6.245433 	 0.946188 	 0.705750 	 0.692500 	  
 12.356968 	 11.576932 	 4.641999 	 0.944813 	 0.707438 	 0.694750 	  
 16.962913 	 9.539627 	 6.819212 	 0.945125 	 0.705562 	 0.692625 	  
 16.577774 	 8.470670 	 5.050717 	 0.947125 	 0.707625 	 0.693688 	  
 12.254788 	 7.615505 	 3.981761 	 0.944750 	 0.705438 	 0.692750 	  
 7.499504 	 6.911251 	 3.714522 	 0.947063 	 0.707313 	 0.693000 	  
 5.243691 	 8.093392 	 2.881364 	 0.944500 	 0.705500 	 0.694438 	  
 5.935369 	 9.602507 	 -0.592744 	 0.947188 	 0.706562 	 0.692562 	  
 8.214761 	 9.514475 	 3.392263 	 0.944250 	 0.705625 	 0.694562 	  
 9.071499 	 7.565201 	 0.460492 	 0.947375 	 0.705813 	 0.692500 	  
 8.537020 	 5.980630 	 6.551972 	 0.944438 	 0.707250 	 0.694562 	  
 8.796400 	 4.911674 	 10.521260 	 0.946500 	 0.705625 	 0.692750 	  
 8.764960 	 6.295029 	 6.504813 	 0.944937 	 0.707750 	 0.694688 	  
 8.191181 	 7.690961 	 5.420136 	 0.945562 	 0.705625 	 0.692625 	  
 11.209412 	 6.622004 	 5.750255 	 0.946562 	 0.707625 	 0.694125 	  
 13.606704 	 4.861370 	 3.565182 	 0.944937 	 0.705750 	 0.692688 	  
 14.243362 	 3.540894 	 1.977467 	 0.947188 	 0.707625 	 0.693312 	  
 13.653864 	 3.163616 	 2.999264 	 0.944438 	 0.705375 	 0.694250 	  
 11.688870 	 2.434210 	 0.279713 	 0.947313 	 0.707313 	 0.692625 	  
 9.731736 	 2.346178 	 3.007124 	 0.944562 	 0.705937 	 0.694562 	  
 8.316941 	 1.692228 	 0.727731 	 0.947313 	 0.706250 	 0.692688 	  
 9.102939 	 1.729956 	 -2.015400 	 0.944375 	 0.706875 	 0.694625 	  
 10.211195 	 1.579045 	 -2.266919 	 0.947313 	 0.705750 	 0.692500 	  
 11.005052 	 0.371753 	 1.097150 	 0.944500 	 0.707375 	 0.694875 	  
 10.509874 	 0.107657 	 -0.081846 	 0.945500 	 0.705625 	 0.692625 	  
 8.112582 	 1.239494 	 2.079647 	 0.946937 	 0.707500 	 0.693875 	  
 2.201881 	 2.522242 	 4.641999 	 0.944688 	 0.705500 	 0.693188 	  
 0.118988 	 3.402559 	 6.245433 	 0.947063 	 0.707500 	 0.693188 	  
 5.589530 	 3.955901 	 6.025354 	 0.944562 	 0.705750 	 0.694625 	  
 12.121169 	 3.767262 	 4.940678 	 0.947250 	 0.706937 	 0.692750 	  
 11.791050 	 4.660155 	 5.042857 	 0.944375 	 0.706063 	 0.694688 	  
 7.106505 	 5.993206 	 3.863861 	 0.947375 	 0.706125 	 0.692750 	  
 0.826385 	 6.722612 	 8.265447 	 0.944438 	 0.707500 	 0.694750 	  
 -3.142902 	 6.798068 	 6.158974 	 0.946875 	 0.705750 	 0.692750 	  
 -0.423351 	 9.363563 	 2.574825 	 0.944375 	 0.707625 	 0.694750 	  
 5.055052 	 9.929482 	 2.284006 	 0.945500 	 0.705313 	 0.692562 	  
 8.450561 	 8.319759 	 5.325816 	 0.946875 	 0.707250 	 0.693875 	  
 8.426981 	 8.231727 	 3.297943 	 0.944625 	 0.705438 	 0.693125 	  
 6.045408 	 9.778570 	 6.135394 	 0.947188 	 0.707187 	 0.693000 	  
 2.296201 	 10.797223 	 5.530176 	 0.944312 	 0.705313 	 0.694688 	  
 -0.195411 	 9.690538 	 5.600915 	 0.947250 	 0.706688 	 0.692813 	  
 0.669186 	 8.332335 	 7.660229 	 0.944375 	 0.705313 	 0.694562 	  
 4.740653 	 7.829296 	 7.982488 	 0.947125 	 0.705813 	 0.692750 	  
 10.053995 	 8.458094 	 6.834931 	 0.944375 	 0.707187 	 0.694750 	  
 12.152609 	 7.854448 	 4.154680 	 0.947063 	 0.705438 	 0.692562 	  
 9.660997 	 6.433365 	 3.392263 	 0.944312 	 0.707313 	 0.694813 	  
 3.907495 	 5.213497 	 2.771325 	 0.945625 	 0.705562 	 0.692688 	  
 4.394814 	 4.584699 	 5.286516 	 0.946937 	 0.707500 	 0.694000 	  
 11.681010 	 3.993629 	 3.125023 	 0.944688 	 0.705313 	 0.693063 	  
 20.114763 	 3.151040 	 1.780968 	 0.947188 	 0.707500 	 0.693312 	  
 21.969717 	 3.918173 	 0.594112 	 0.944625 	 0.705562 	 0.694688 	  
 18.527048 	 6.735188 	 4.689158 	 0.947250 	 0.706625 	 0.692750 	  
 13.583124 	 9.954634 	 3.588762 	 0.944375 	 0.705937 	 0.694813 	  
 9.362318 	 9.376139 	 3.895301 	 0.947500 	 0.705937 	 0.692688 	  
 8.945739 	 7.200498 	 4.421919 	 0.944438 	 0.707000 	 0.694750 	  
 13.205845 	 5.376984 	 3.565182 	 0.946562 	 0.705375 	 0.692813 	  
 17.568131 	 5.477592 	 4.586979 	 0.944875 	 0.707313 	 0.694750 	  
 17.796070 	 6.622004 	 7.683809 	 0.945625 	 0.705375 	 0.692562 	  
 14.180482 	 8.458094 	 7.015711 	 0.945937 	 0.707438 	 0.694625 	  
 6.854986 	 9.640235 	 4.068220 	 0.944875 	 0.705438 	 0.692813 	  
 2.587020 	 10.206153 	 4.138960 	 0.947250 	 0.707500 	 0.693500 	  
 3.986095 	 10.583431 	 4.131100 	 0.944500 	 0.705562 	 0.694438 	  
 10.446994 	 10.772071 	 3.518022 	 0.947313 	 0.707125 	 0.692750 	  
 15.186559 	 10.558280 	 7.039291 	 0.944562 	 0.705688 	 0.694625 	  
 14.982199 	 9.527051 	 6.614852 	 0.947313 	 0.706313 	 0.692813 	  
 12.215488 	 7.778993 	 5.231497 	 0.944438 	 0.706313 	 0.694750 	  
 8.764960 	 6.295029 	 3.808841 	 0.947313 	 0.706000 	 0.692625 	  
 6.713506 	 6.282453 	 1.505869 	 0.944375 	 0.707313 	 0.694750 	  
 8.183322 	 6.785492 	 2.582685 	 0.946188 	 0.705500 	 0.692688 	  
 12.734247 	 9.237804 	 4.178260 	 0.944813 	 0.707438 	 0.694688 	  
 13.418065 	 10.809799 	 4.021061 	 0.945188 	 0.705313 	 0.692625 	  
 11.036492 	 11.136774 	 5.223637 	 0.946438 	 0.707438 	 0.694250 	  
 7.428764 	 10.507976 	 5.113597 	 0.944937 	 0.705438 	 0.692688 	  
 4.276914 	 8.546126 	 3.109304 	 0.947125 	 0.707500 	 0.693500 	  
 4.355514 	 6.332757 	 3.628062 	 0.944438 	 0.705375 	 0.694562 	  
 8.678500 	 3.754686 	 5.160757 	 0.947250 	 0.706813 	 0.692750 	  
 11.775330 	 3.063008 	 2.095367 	 0.944438 	 0.705375 	 0.694625 	  
 10.250495 	 4.219996 	 3.706662 	 0.947125 	 0.706375 	 0.692750 	  
 7.986822 	 6.546549 	 4.995697 	 0.944562 	 0.706375 	 0.694562 	  
 5.856769 	 7.741265 	 3.266503 	 0.947375 	 0.705875 	 0.692688 	  
 1.777442 	 7.288530 	 5.003557 	 0.944375 	 0.707688 	 0.694875 	  
 -0.203271 	 5.930327 	 2.959964 	 0.946313 	 0.705937 	 0.692625 	  
 5.408750 	 5.502744 	 1.183610 	 0.945500 	 0.707688 	 0.694688 	  
 10.957893 	 4.798490 	 4.107520 	 0.945125 	 0.705688 	 0.692750 	  
 12.506308 	 3.553470 	 5.483016 	 0.947250 	 0.707625 	 0.693625 	  
 10.266215 	 2.861792 	 1.387969 	 0.944688 	 0.705625 	 0.693875 	  
 8.348381 	 1.994051 	 2.747745 	 0.947250 	 0.707625 	 0.693250 	  
 7.350164 	 2.308450 	 3.360823 	 0.944562 	 0.705625 	 0.694562 	  
 9.755316 	 3.138464 	 1.301509 	 0.947375 	 0.707187 	 0.692688 	  
 13.803203 	 4.873946 	 2.276146 	 0.944250 	 0.705750 	 0.694750 	  
 15.493098 	 5.942903 	 5.113597 	 0.947188 	 0.706250 	 0.692625 	  
 14.408421 	 6.156694 	 3.738102 	 0.944438 	 0.707375 	 0.694750 	  
 10.737813 	 5.565624 	 3.808841 	 0.947188 	 0.705688 	 0.692625 	  
 5.243691 	 5.930327 	 4.005341 	 0.944375 	 0.707625 	 0.694688 	  
 1.054325 	 7.665809 	 4.720598 	 0.945937 	 0.705562 	 0.692625 	  
 3.655976 	 8.998861 	 7.958908 	 0.945000 	 0.707562 	 0.694688 	  
 8.851419 	 8.583854 	 9.318683 	 0.945375 	 0.705813 	 0.692625 	  
 11.060072 	 9.036588 	 7.322250 	 0.946188 	 0.707625 	 0.694562 	  
 9.417338 	 9.816298 	 2.008907 	 0.945000 	 0.705500 	 0.692562 	  
 7.177245 	 10.105545 	 -1.645981 	 0.947063 	 0.707875 	 0.693688 	  
 4.441974 	 9.350987 	 -1.850340 	 0.944750 	 0.705688 	 0.693312 	  
 2.877839 	 7.741265 	 -0.742084 	 0.947250 	 0.707562 	 0.692937 	  
 2.296201 	 6.508821 	 -1.842480 	 0.944375 	 0.705813 	 0.694688 	  
 4.402674 	 5.477592 	 -2.667778 	 0.947188 	 0.706625 	 0.692688 	  
 8.269781 	 5.527896 	 -1.693141 	 0.944375 	 0.706875 	 0.694562 	  
 7.829623 	 5.754263 	 -0.215466 	 0.947063 	 0.705813 	 0.692750 	  
 2.288341 	 6.445941 	 -2.078280 	 0.944438 	 0.707500 	 0.694625 	  
 -2.097525 	 6.508821 	 1.985327 	 0.945813 	 0.705438 	 0.692500 	  
 0.158287 	 6.584276 	 3.856001 	 0.945750 	 0.707313 	 0.694625 	  
 7.436624 	 7.565201 	 5.097877 	 0.944750 	 0.705438 	 0.692562 	  
 14.109742 	 9.074316 	 5.215777 	 0.947250 	 0.707500 	 0.693500 	  
 15.500958 	 10.621159 	 5.624495 	 0.944562 	 0.705562 	 0.693750 	  
 11.508091 	 10.306760 	 5.640215 	 0.947250 	 0.707438 	 0.693000 	  
 6.854986 	 8.885677 	 4.083940 	 0.944625 	 0.705438 	 0.694625 	  
 4.465554 	 7.791569 	 3.054284 	 0.947313 	 0.706375 	 0.692875 	  
 6.603467 	 7.401714 	 2.739885 	 0.944438 	 0.707187 	 0.694875 	  
 11.413771 	 5.716535 	 3.352963 	 0.947375 	 0.705438 	 0.692688 	  
 14.439861 	 5.188345 	 2.983544 	 0.944500 	 0.707125 	 0.694750 	  
 14.353402 	 6.295029 	 3.227203 	 0.946313 	 0.705562 	 0.692750 	  
 12.915026 	 8.583854 	 4.610559 	 0.945125 	 0.707313 	 0.694813 	  
 9.747456 	 9.602507 	 7.974628 	 0.945000 	 0.705250 	 0.692625 	  
 5.903929 	 9.589931 	 6.614852 	 0.947000 	 0.707562 	 0.693937 	  
 7.648843 	 9.439019 	 6.905671 	 0.944688 	 0.705688 	 0.692875 	  
 16.114036 	 7.690961 	 5.545896 	 0.947188 	 0.707500 	 0.693125 	  
 21.498118 	 7.024435 	 6.772052 	 0.944375 	 0.705438 	 0.694813 	  
 19.933983 	 7.338834 	 7.833148 	 0.947250 	 0.707187 	 0.692937 	  
 14.935040 	 8.973709 	 8.202567 	 0.944562 	 0.705313 	 0.694625 	  
 7.051485 	 9.426443 	 9.090744 	 0.947250 	 0.706187 	 0.692813 	  
 1.455183 	 8.017936 	 6.575552 	 0.944312 	 0.706813 	 0.694813 	  
 4.850692 	 6.684884 	 5.152897 	 0.947438 	 0.705875 	 0.692688 	  
 11.508091 	 7.074739 	 4.979977 	 0.944312 	 0.707438 	 0.694813 	  
 11.979689 	 8.483246 	 7.023571 	 0.946125 	 0.705500 	 0.692688 	  
 8.269781 	 9.615083 	 9.043584 	 0.944750 	 0.707438 	 0.694562 	  
 5.550230 	 11.664964 	 7.982488 	 0.945562 	 0.705438 	 0.692750 	  
 4.913572 	 12.230882 	 6.135394 	 0.946063 	 0.707500 	 0.694312 	  
 5.872489 	 9.489323 	 4.382619 	 0.945063 	 0.705125 	 0.692438 	  
 10.439134 	 6.622004 	 4.987837 	 0.947063 	 0.707250 	 0.693500 	  
 12.553467 	 6.986707 	 2.614125 	 0.944500 	 0.705438 	 0.694125 	  
 12.757827 	 8.420366 	 4.822778 	 0.947250 	 0.707187 	 0.692875 	  
 9.865356 	 9.338412 	 2.001047 	 0.944375 	 0.705000 	 0.694750 	  
 5.471630 	 9.627659 	 3.895301 	 0.947188 	 0.706438 	 0.692813 	  
 2.924999 	 9.602507 	 4.791338 	 0.944438 	 0.705500 	 0.694562 	  
 3.726716 	 9.086892 	 8.021788 	 0.947125 	 0.705375 	 0.692750 	  
 9.896796 	 8.080816 	 10.293320 	 0.944125 	 0.707063 	 0.694688 	  
 16.648514 	 7.125043 	 10.159701 	 0.947313 	 0.705688 	 0.692500 	  
 19.525265 	 7.238226 	 7.770268 	 0.944562 	 0.707250 	 0.694875 	  
 18.472028 	 7.137619 	 9.216504 	 0.946375 	 0.705562 	 0.692813 	  
 12.655647 	 5.452440 	 6.465513 	 0.945000 	 0.707375 	 0.694750 	  
 4.654193 	 2.182691 	 7.385130 	 0.945500 	 0.705438 	 0.692688 	  
 3.931075 	 -0.143862 	 7.526609 	 0.946375 	 0.707438 	 0.694500 	  
 9.024339 	 0.271145 	 7.086451 	 0.944937 	 0.705562 	 0.692688 	  
 12.537747 	 1.088582 	 3.643782 	 0.947250 	 0.707375 	 0.693625 	  
 11.736030 	 3.138464 	 3.297943 	 0.944750 	 0.705688 	 0.693063 	  
 10.509874 	 5.163193 	 6.261153 	 0.947250 	 0.707625 	 0.693750 	  
 6.792106 	 7.024435 	 -20.486340 	 0.944625 	 0.705438 	 0.694000 	  
 3.860335 	 7.401714 	 -24.046909 	 0.947188 	 0.707187 	 0.693063 	  
 7.806043 	 7.879600 	 -8.374119 	 0.944562 	 0.705750 	 0.694813 	  
 16.742834 	 8.772493 	 2.056067 	 0.947375 	 0.705750 	 0.692688 	  
 22.229096 	 11.312837 	 3.525882 	 0.944312 	 0.707250 	 0.694875 	  
 20.248382 	 13.111199 	 5.938894 	 0.947188 	 0.705688 	 0.692813 	  
 13.551684 	 12.557857 	 4.052500 	 0.944562 	 0.707500 	 0.694875 	  
 5.864629 	 10.407368 	 -2.282639 	 0.945937 	 0.705438 	 0.692813 	  
 2.712779 	 8.445518 	 -2.164739 	 0.945000 	 0.707438 	 0.694875 	  
 3.781736 	 7.590353 	 -1.795321 	 0.945188 	 0.705688 	 0.692750 	  
 5.503070 	 5.439864 	 -2.062560 	 0.947250 	 0.707438 	 0.693562 	  
 5.817469 	 3.515742 	 0.869211 	 0.944562 	 0.705625 	 0.694750 	  
 5.408750 	 2.723457 	 -0.105426 	 0.947438 	 0.706813 	 0.693063 	  
 3.923215 	 3.427711 	 2.040347 	 0.944438 	 0.705562 	 0.694813 	  
 1.313704 	 2.698305 	 7.534469 	 0.947188 	 0.705937 	 0.692875 	  
 1.793162 	 2.723457 	 2.692725 	 0.944375 	 0.707250 	 0.694813 	  
 5.597390 	 3.855293 	 1.097150 	 0.946625 	 0.705313 	 0.692750 	  
 7.696003 	 4.119388 	 1.112870 	 0.944750 	 0.707125 	 0.695000 	  
 5.314431 	 3.239071 	 10.159701 	 0.945125 	 0.705500 	 0.692750 	  
 3.286557 	 3.528318 	 10.049661 	 0.947125 	 0.707187 	 0.693750 	  
 2.217601 	 5.905175 	 10.615579 	 0.944438 	 0.705125 	 0.693312 	  
 2.783519 	 8.307183 	 10.568419 	 0.947188 	 0.707313 	 0.693250 	  
 5.691710 	 9.539627 	 10.505540 	 0.944562 	 0.705125 	 0.694750 	  
 12.592767 	 7.929904 	 9.208644 	 0.947188 	 0.706625 	 0.693000 	  
 18.715687 	 6.659732 	 7.785988 	 0.944562 	 0.705688 	 0.694813 	  
 20.028303 	 6.433365 	 5.498736 	 0.947625 	 0.706313 	 0.692875 	  
 17.230152 	 6.420789 	 4.288300 	 0.944500 	 0.707375 	 0.695125 	  
 9.668857 	 4.383484 	 2.449066 	 0.947000 	 0.705688 	 0.692875 	  
 2.602740 	 2.497090 	 6.033214 	 0.944625 	 0.707562 	 0.695063 	  
 2.500560 	 2.899520 	 1.883148 	 0.945375 	 0.705562 	 0.692937 	  
 10.627774 	 3.402559 	 6.599132 	 0.947063 	 0.707500 	 0.694125 	  
 16.900033 	 4.798490 	 8.689885 	 0.944813 	 0.705625 	 0.693562 	  
 17.017933 	 5.112889 	 8.163267 	 0.947188 	 0.707500 	 0.693438 	  
 13.740324 	 5.238649 	 6.905671 	 0.944500 	 0.705688 	 0.694875 	  
 9.228698 	 4.848794 	 3.911021 	 0.947313 	 0.707125 	 0.693063 	  
 4.622753 	 4.396060 	 5.365116 	 0.944688 	 0.705500 	 0.694937 	  
 4.905712 	 3.075584 	 6.371193 	 0.947313 	 0.705937 	 0.693000 	  
 10.226915 	 4.270300 	 5.255077 	 0.944500 	 0.706750 	 0.694813 	  
 13.590984 	 6.043510 	 6.496953 	 0.947375 	 0.705562 	 0.692875 	  
 11.696730 	 7.489745 	 4.885658 	 0.944375 	 0.707250 	 0.695188 	  
 6.430547 	 7.238226 	 5.396556 	 0.946188 	 0.705375 	 0.692875 	  
 2.783519 	 6.936403 	 2.535525 	 0.945000 	 0.707375 	 0.695063 	  
 4.473414 	 7.162771 	 0.774891 	 0.945125 	 0.705375 	 0.693000 	  
 10.753533 	 7.426866 	 2.637705 	 0.947250 	 0.707375 	 0.693937 	  
 15.642437 	 8.508398 	 4.296160 	 0.944750 	 0.705187 	 0.693875 	  
 17.355912 	 8.785069 	 0.735591 	 0.947313 	 0.707313 	 0.693500 	  
 17.190852 	 9.200076 	 1.372249 	 0.944500 	 0.705500 	 0.695063 	  
 12.600627 	 8.017936 	 -0.136866 	 0.947500 	 0.706063 	 0.692937 	  
 6.336227 	 7.338834 	 3.730242 	 0.944438 	 0.706187 	 0.695063 	  
 4.331934 	 8.458094 	 4.311880 	 0.947313 	 0.705625 	 0.692937 	  
 7.908222 	 9.677962 	 1.780968 	 0.944500 	 0.707125 	 0.695000 	  
 9.393758 	 8.256879 	 -0.349085 	 0.946000 	 0.705250 	 0.692937 	  
 6.996465 	 7.011859 	 3.470862 	 0.945562 	 0.707250 	 0.695000 	  
 4.693493 	 9.112044 	 5.632355 	 0.944875 	 0.705187 	 0.693000 	  
 2.327640 	 12.482401 	 11.409437 	 0.947125 	 0.707063 	 0.693562 	  
 -0.651290 	 13.777725 	 13.893189 	 0.944438 	 0.705125 	 0.694500 	  
 1.863902 	 12.469825 	 7.809568 	 0.947313 	 0.706937 	 0.693063 	  
 7.523084 	 11.589508 	 8.839225 	 0.944500 	 0.705250 	 0.695000 	  
 9.181538 	 10.608583 	 2.755605 	 0.947375 	 0.706750 	 0.693125 	  
 7.350164 	 10.067817 	 -0.687064 	 0.944562 	 0.705688 	 0.695000 	  
 6.037548 	 8.759917 	 1.804548 	 0.947500 	 0.705875 	 0.693000 	  
 7.004325 	 8.621582 	 5.726675 	 0.944438 	 0.707250 	 0.695188 	  
 7.232265 	 8.973709 	 6.386913 	 0.946250 	 0.705500 	 0.693000 	  
 9.653137 	 6.760340 	 4.406199 	 0.945000 	 0.707250 	 0.695063 	  
 12.592767 	 4.572123 	 0.617692 	 0.945438 	 0.705500 	 0.693063 	  
 16.538474 	 5.112889 	 3.290083 	 0.947313 	 0.707375 	 0.694063 	  
 19.729624 	 7.439442 	 2.331166 	 0.944688 	 0.705313 	 0.693875 	  
 18.456308 	 6.559125 	 0.098933 	 0.947188 	 0.707313 	 0.693562 	  
 11.531671 	 4.911674 	 1.710228 	 0.944688 	 0.705438 	 0.695000 	  
 8.505580 	 5.477592 	 2.732025 	 0.947438 	 0.706313 	 0.693125 	  
 13.473084 	 7.351410 	 0.649132 	 0.944500 	 0.705438 	 0.695125 	  
 18.739267 	 8.546126 	 3.785261 	 0.947500 	 0.705500 	 0.693125 	  
 18.684248 	 8.445518 	 1.042130 	 0.944688 	 0.707313 	 0.695063 	  
 15.901817 	 6.873523 	 1.623768 	 0.947063 	 0.705375 	 0.693063 	  
 11.484511 	 5.628504 	 2.291866 	 0.944500 	 0.707375 	 0.695188 	  
 7.224405 	 5.226073 	 3.612342 	 0.945750 	 0.705438 	 0.692937 	  
 8.670640 	 5.678807 	 2.449066 	 0.947000 	 0.707313 	 0.694562 	  
 14.903600 	 6.043510 	 4.288300 	 0.944813 	 0.705625 	 0.693312 	  
 17.874670 	 7.841872 	 6.889951 	 0.947500 	 0.707625 	 0.693500 	  
 15.595278 	 9.514475 	 5.561616 	 0.944688 	 0.705250 	 0.695125 	  
 13.370905 	 9.979785 	 3.290083 	 0.947375 	 0.706750 	 0.693188 	  
 9.354458 	 11.086470 	 6.567692 	 0.944500 	 0.705500 	 0.695000 	  
 2.028961 	 11.187078 	 5.765975 	 0.947438 	 0.706063 	 0.693000 	  
 -1.020709 	 11.048742 	 3.761681 	 0.944500 	 0.706750 	 0.695125 	  
 4.410534 	 10.294184 	 2.912804 	 0.947500 	 0.705625 	 0.692937 	  
 9.637417 	 10.520552 	 2.496226 	 0.944562 	 0.707125 	 0.695063 	  
 7.075065 	 10.294184 	 5.522316 	 0.945937 	 0.705125 	 0.693000 	  
 1.470903 	 7.929904 	 3.698802 	 0.945125 	 0.707063 	 0.694937 	  
 -1.295808 	 6.156694 	 4.586979 	 0.945188 	 0.705000 	 0.692875 	  
 -1.853866 	 5.892599 	 2.598405 	 0.947188 	 0.707000 	 0.693813 	  
 -1.225068 	 7.037011 	 4.319740 	 0.944562 	 0.705250 	 0.694750 	  
 3.129358 	 6.672308 	 5.050717 	 0.947500 	 0.706937 	 0.693188 	  
 8.159742 	 5.993206 	 2.189687 	 0.944562 	 0.705562 	 0.695188 	  
 10.478434 	 4.333180 	 -0.097566 	 0.947438 	 0.706187 	 0.693063 	  
 6.666346 	 2.295874 	 -3.013617 	 0.944750 	 0.707187 	 0.695125 	  
 0.346927 	 -0.986451 	 2.260426 	 0.946688 	 0.705562 	 0.693000 	  
 -1.665227 	 -2.772237 	 0.861351 	 0.945000 	 0.707625 	 0.695188 	  
 1.785302 	 -0.986451 	 -0.537725 	 0.945562 	 0.705813 	 0.693063 	  
 7.507364 	 2.006627 	 2.614125 	 0.947250 	 0.707375 	 0.694125 	  
 9.873216 	 2.622849 	 5.820995 	 0.944750 	 0.705813 	 0.693813 	  
 10.022556 	 2.019203 	 3.164323 	 0.947500 	 0.707625 	 0.693188 	  
 8.725660 	 3.515742 	 2.621985 	 0.944688 	 0.705500 	 0.695063 	  
 4.669913 	 3.540894 	 5.435856 	 0.947438 	 0.706375 	 0.693125 	  
 4.567733 	 2.446786 	 4.406199 	 0.944562 	 0.706813 	 0.695063 	  
 11.814630 	 2.333602 	 6.551972 	 0.947313 	 0.705688 	 0.693000 	  
 17.214432 	 5.175769 	 2.755605 	 0.944500 	 0.707625 	 0.695250 	  
 17.686031 	 7.250802 	 5.773835 	 0.946063 	 0.705625 	 0.693000 	  
 16.082596 	 7.338834 	 6.646292 	 0.945250 	 0.707813 	 0.695125 	  
 11.987549 	 5.263801 	 6.536252 	 0.945313 	 0.705625 	 0.693125 	  
 6.406967 	 3.767262 	 5.820995 	 0.947250 	 0.707500 	 0.694125 	  
 5.660270 	 4.018781 	 4.319740 	 0.944813 	 0.705500 	 0.694188 	  
 9.653137 	 5.301529 	 5.145037 	 0.947313 	 0.707000 	 0.693250 	  
 10.329095 	 6.496245 	 6.599132 	 0.944688 	 0.705750 	 0.695063 	  
 10.541314 	 7.540049 	 4.665579 	 0.947625 	 0.706063 	 0.693063 	  
 10.965752 	 9.841450 	 7.699529 	 0.944500 	 0.706625 	 0.695188 	  
 6.548447 	 11.451173 	 6.261153 	 0.947375 	 0.705875 	 0.693063 	  
 -0.030352 	 10.495400 	 5.200057 	 0.944500 	 0.707250 	 0.695063 	  
 -0.242571 	 9.753418 	 5.207917 	 0.946250 	 0.705187 	 0.693063 	  
 6.854986 	 10.155849 	 7.424430 	 0.945000 	 0.707375 	 0.695188 	  
 12.341248 	 9.589931 	 6.944971 	 0.945250 	 0.705375 	 0.692875 	  
 11.398051 	 8.370063 	 9.177204 	 0.947125 	 0.707125 	 0.694000 	  
 6.572027 	 9.099468 	 5.687375 	 0.944625 	 0.705562 	 0.693562 	  
 2.877839 	 10.872679 	 5.247217 	 0.947375 	 0.707500 	 0.693438 	  
 2.547720 	 11.752996 	 4.500519 	 0.944562 	 0.705313 	 0.695063 	  
 7.947522 	 10.445096 	 6.151114 	 0.947375 	 0.706625 	 0.693250 	  
 14.872160 	 8.722190 	 4.539819 	 0.944750 	 0.706313 	 0.695125 	  
 16.491315 	 7.338834 	 3.824561 	 0.947562 	 0.706000 	 0.693125 	  
 15.123679 	 7.552625 	 4.720598 	 0.944500 	 0.707375 	 0.695188 	  
 13.331605 	 7.917328 	 2.472646 	 0.947313 	 0.705875 	 0.693125 	  
 10.981472 	 8.520974 	 -0.545585 	 0.944500 	 0.707562 	 0.695250 	  
 8.489861 	 8.558702 	 -4.279073 	 0.945688 	 0.705438 	 0.693125 	  
 11.177972 	 8.445518 	 1.686648 	 0.947063 	 0.707750 	 0.694500 	  
 14.447721 	 6.823220 	 -0.655624 	 0.944875 	 0.705625 	 0.693500 	  
 17.913970 	 3.465439 	 0.704151 	 0.947188 	 0.707688 	 0.693500 	  
 18.849307 	 3.100736 	 1.419409 	 0.944625 	 0.705625 	 0.695125 	  
 13.410205 	 5.351832 	 1.034270 	 0.947562 	 0.706750 	 0.693063 	  
 6.697786 	 7.351410 	 2.779185 	 0.944562 	 0.705813 	 0.695188 	  
 7.059345 	 7.338834 	 1.010690 	 0.947438 	 0.706187 	 0.693125 	  
 13.551684 	 8.105968 	 5.388696 	 0.944562 	 0.707375 	 0.695063 	  
 15.831077 	 8.118543 	 3.109304 	 0.947000 	 0.705562 	 0.693188 	  
 13.999703 	 7.841872 	 3.148603 	 0.944562 	 0.707625 	 0.695313 	  
 11.948249 	 8.193999 	 -0.852124 	 0.945813 	 0.705688 	 0.693000 	  
 9.244418 	 8.294607 	 3.730242 	 0.946813 	 0.707625 	 0.694562 	  
 3.553796 	 7.917328 	 3.117164 	 0.944937 	 0.705562 	 0.693250 	  
 4.001815 	 6.672308 	 3.698802 	 0.947375 	 0.707500 	 0.693688 	  
 11.846070 	 7.238226 	 1.914587 	 0.944688 	 0.705500 	 0.695000 	  
 17.458091 	 7.778993 	 1.969607 	 0.947250 	 0.707125 	 0.693188 	  
 15.414498 	 6.471093 	 4.351180 	 0.944562 	 0.705937 	 0.695000 	  
 10.855713 	 4.635003 	 6.371193 	 0.947500 	 0.706000 	 0.693063 	  
 6.375527 	 6.030934 	 6.009634 	 0.944438 	 0.707313 	 0.695188 	  
 5.817469 	 7.791569 	 4.869938 	 0.947125 	 0.705500 	 0.693063 	  
 10.258355 	 8.156271 	 3.997481 	 0.944562 	 0.707375 	 0.695125 	  
 13.103666 	 6.672308 	 3.352963 	 0.946063 	 0.705438 	 0.693000 	  
 9.134378 	 5.942903 	 5.915314 	 0.945250 	 0.707313 	 0.695063 	  
 3.726716 	 5.791991 	 4.484799 	 0.945188 	 0.705438 	 0.692937 	  
 2.783519 	 6.722612 	 3.911021 	 0.947188 	 0.707500 	 0.694000 	  
 1.502343 	 9.187500 	 3.800981 	 0.944562 	 0.705625 	 0.694750 	  
 1.290124 	 10.017513 	 3.698802 	 0.947500 	 0.707187 	 0.693250 	  
 5.463770 	 7.540049 	 2.904944 	 0.944625 	 0.706000 	 0.695250 	  
 11.052212 	 5.490168 	 5.388696 	 0.947562 	 0.706750 	 0.693125 	  
 14.942900 	 6.307605 	 6.662012 	 0.944750 	 0.707750 	 0.695188 	  
 13.520244 	 7.628081 	 1.859568 	 0.947188 	 0.706125 	 0.693188 	  
 7.538804 	 6.433365 	 4.649859 	 0.944438 	 0.708063 	 0.695250 	  
 1.156504 	 3.742110 	 4.673438 	 0.945688 	 0.705937 	 0.692937 	  
 2.964298 	 3.075584 	 5.907454 	 0.946813 	 0.707937 	 0.694750 	  
 13.174405 	 5.917751 	 6.677732 	 0.944937 	 0.706063 	 0.693312 	  
 19.894684 	 7.778993 	 5.105737 	 0.947438 	 0.707813 	 0.693750 	  
 17.167272 	 7.678385 	 3.785261 	 0.944688 	 0.705750 	 0.695188 	  
 10.761393 	 5.854871 	 4.476939 	 0.947438 	 0.707438 	 0.693250 	  
 4.913572 	 5.427288 	 7.220070 	 0.944625 	 0.706000 	 0.695000 	  
 3.593096 	 6.508821 	 6.489093 	 0.947438 	 0.706313 	 0.693125 	  
 9.747456 	 7.716113 	 4.791338 	 0.944438 	 0.707063 	 0.695313 	  
 15.548118 	 7.099891 	 2.716305 	 0.947438 	 0.705937 	 0.693063 	  
 15.139399 	 7.074739 	 1.498009 	 0.944500 	 0.707500 	 0.695125 	  
 11.531671 	 7.678385 	 6.339753 	 0.946500 	 0.705875 	 0.693188 	  
 8.482001 	 8.847949 	 5.215777 	 0.945063 	 0.707750 	 0.695250 	  
 4.111855 	 10.243881 	 2.433346 	 0.945500 	 0.705375 	 0.693063 	  
 3.577376 	 10.004937 	 3.077864 	 0.947000 	 0.707562 	 0.694375 	  
 8.529160 	 9.024013 	 3.761681 	 0.944875 	 0.705750 	 0.693562 	  
 14.235502 	 7.929904 	 2.653425 	 0.947375 	 0.707562 	 0.693562 	  
 12.946466 	 7.037011 	 1.207190 	 0.944562 	 0.705500 	 0.695125 	  
 8.002542 	 6.433365 	 2.920664 	 0.947500 	 0.706688 	 0.693125 	  
 2.885699 	 6.282453 	 1.128590 	 0.944500 	 0.705750 	 0.695063 	  
 0.346927 	 5.754263 	 1.765248 	 0.947250 	 0.705500 	 0.693188 	  
 2.964298 	 5.150617 	 3.250783 	 0.944438 	 0.707313 	 0.695250 	  
 10.219055 	 5.490168 	 1.120730 	 0.946375 	 0.705438 	 0.693063 	  
 14.636361 	 7.112467 	 3.698802 	 0.944937 	 0.707187 	 0.695250 	  
 13.512384 	 8.810221 	 3.698802 	 0.945375 	 0.705187 	 0.693063 	  
 8.348381 	 10.331912 	 -0.160446 	 0.947313 	 0.707063 	 0.694125 	  
 1.966082 	 9.791146 	 -3.272996 	 0.944562 	 0.705187 	 0.694625 	  
 -3.205782 	 7.024435 	 -1.740301 	 0.947313 	 0.707187 	 0.693250 	  
 -4.203998 	 6.345333 	 7.660229 	 0.944750 	 0.706063 	 0.695188 	  
 2.618460 	 9.300684 	 7.023571 	 0.947562 	 0.705937 	 0.693312 	  
 10.321235 	 12.218306 	 6.300453 	 0.944438 	 0.707438 	 0.695313 	  
 13.716744 	 10.319336 	 4.374759 	 0.946188 	 0.705500 	 0.693188 	  
 10.887153 	 8.105968 	 6.135394 	 0.945063 	 0.707187 	 0.695250 	  
 5.448050 	 10.181001 	 8.571986 	 0.945313 	 0.705688 	 0.693063 	  
 2.681339 	 12.809376 	 7.471589 	 0.947188 	 0.707688 	 0.694625 	  
 5.841049 	 13.199231 	 6.048934 	 0.944750 	 0.705688 	 0.693562 	  
 12.537747 	 11.715268 	 4.775618 	 0.947313 	 0.707625 	 0.693750 	  
 15.516678 	 8.998861 	 8.226147 	 0.944750 	 0.705562 	 0.695000 	  
 13.685304 	 7.225650 	 7.715249 	 0.947500 	 0.706688 	 0.693188 	  
 9.716017 	 7.225650 	 6.803492 	 0.944438 	 0.705813 	 0.695313 	  
 6.517007 	 9.300684 	 6.913531 	 0.947438 	 0.706125 	 0.693063 	  
 6.257628 	 12.457249 	 5.750255 	 0.944562 	 0.707187 	 0.695125 	  
 11.280151 	 13.589086 	 4.728458 	 0.947375 	 0.705625 	 0.693188 	  
 15.728897 	 12.205730 	 4.099660 	 0.944625 	 0.707500 	 0.695375 	  
 11.995409 	 8.659310 	 3.565182 	 0.946000 	 0.705688 	 0.693125 	  
 6.902146 	 5.553048 	 2.339026 	 0.945937 	 0.707750 	 0.695250 	  
 2.225461 	 2.811489 	 4.217560 	 0.945188 	 0.705750 	 0.693063 	  
 -0.839929 	 0.849639 	 7.581629 	 0.947500 	 0.707625 	 0.693875 	  
 0.378367 	 2.924672 	 6.386913 	 0.944813 	 0.705625 	 0.694750 	  
 7.711723 	 5.867447 	 7.565909 	 0.947375 	 0.707625 	 0.693312 	  
 12.946466 	 5.427288 	 7.117891 	 0.944750 	 0.705625 	 0.695125 	  
 13.488804 	 2.773761 	 8.249727 	 0.947375 	 0.706937 	 0.693250 	  
 9.550957 	 3.050432 	 5.105737 	 0.944438 	 0.705937 	 0.695313 	  
 2.924999 	 5.251225 	 3.714522 	 0.947562 	 0.706063 	 0.693125 	  
 -2.380484 	 5.477592 	 1.843848 	 0.944625 	 0.707250 	 0.695188 	  
 0.142568 	 4.546971 	 0.083213 	 0.946813 	 0.705562 	 0.693125 	  
 11.060072 	 5.314105 	 0.374032 	 0.944750 	 0.707562 	 0.695188 	  
 16.860733 	 5.666231 	 0.633412 	 0.945625 	 0.705250 	 0.693125 	  
 16.059016 	 4.232572 	 -0.191886 	 0.946500 	 0.707562 	 0.694750 	  
 11.908949 	 3.000128 	 2.394046 	 0.945125 	 0.705562 	 0.693063 	  
 8.191181 	 3.842717 	 4.461219 	 0.947250 	 0.707500 	 0.694000 	  
 5.495210 	 4.245148 	 2.621985 	 0.944688 	 0.705562 	 0.694750 	  
 8.151882 	 4.723034 	 -0.239046 	 0.947562 	 0.707500 	 0.693375 	  
 13.944683 	 3.691806 	 -1.205822 	 0.944750 	 0.705937 	 0.695188 	  
 16.569914 	 1.113734 	 0.256133 	 0.947500 	 0.706250 	 0.693375 	  
 15.516678 	 2.031779 	 2.087507 	 0.944625 	 0.707562 	 0.695313 	  
 13.441644 	 4.119388 	 2.260426 	 0.947250 	 0.705875 	 0.693250 	  
 11.225132 	 5.163193 	 -1.394462 	 0.944688 	 0.707625 	 0.695375 	  
 9.307298 	 5.251225 	 2.684865 	 0.945688 	 0.705625 	 0.693188 	  
 10.682793 	 4.521819 	 5.310096 	 0.947188 	 0.707625 	 0.694562 	  
 14.659941 	 4.056509 	 5.325816 	 0.944937 	 0.705688 	 0.693562 	  
 19.171566 	 3.075584 	 4.807058 	 0.947375 	 0.707750 	 0.693937 	  
 18.495608 	 3.578622 	 3.596622 	 0.944750 	 0.705500 	 0.695188 	  
 12.498448 	 4.760762 	 3.934601 	 0.947375 	 0.706688 	 0.693500 	  
 6.194748 	 5.678807 	 2.944244 	 0.944562 	 0.705625 	 0.695313 	  
 5.110071 	 5.175769 	 2.307586 	 0.947625 	 0.706313 	 0.693312 	  
 11.303731 	 5.766839 	 1.883148 	 0.944688 	 0.706750 	 0.695313 	  
 15.587418 	 6.383061 	 4.162540 	 0.947188 	 0.705625 	 0.693312 	  
 15.398778 	 7.099891 	 5.310096 	 0.944813 	 0.707375 	 0.695375 	  
 9.723877 	 6.370485 	 1.969607 	 0.946063 	 0.705375 	 0.693312 	  
 4.732793 	 7.313682 	 2.307586 	 0.946063 	 0.707438 	 0.695188 	  
 2.351220 	 9.791146 	 9.027864 	 0.945125 	 0.705688 	 0.693375 	  
 5.817469 	 11.991939 	 7.204350 	 0.947375 	 0.707562 	 0.694000 	  
 10.195475 	 12.432097 	 7.448009 	 0.944625 	 0.705438 	 0.695063 	  
 11.618130 	 11.061318 	 4.555539 	 0.947375 	 0.707438 	 0.693500 	  
 12.828566 	 13.136351 	 1.946027 	 0.944750 	 0.705313 	 0.695250 	  
 12.419848 	 14.670618 	 0.594112 	 0.947375 	 0.706000 	 0.693375 	  
 7.012185 	 14.129852 	 2.645565 	 0.944500 	 0.706438 	 0.695313 	  
 1.022885 	 11.576932 	 2.032487 	 0.947500 	 0.705125 	 0.693188 	  
 1.730282 	 10.470248 	 5.718815 	 0.944500 	 0.707063 	 0.695313 	  
 6.776386 	 8.961133 	 5.671655 	 0.945937 	 0.705250 	 0.693250 	  
 10.769253 	 8.432942 	 7.675949 	 0.945875 	 0.707187 	 0.695125 	  
 10.729953 	 8.885677 	 6.960691 	 0.945250 	 0.705438 	 0.693500 	  
 7.208685 	 10.520552 	 5.750255 	 0.947125 	 0.707187 	 0.694562 	  
 0.362647 	 10.570856 	 5.475156 	 0.944875 	 0.705438 	 0.694250 	  
 -4.188278 	 7.980208 	 4.036781 	 0.947438 	 0.707250 	 0.693688 	  
 -0.784909 	 5.301529 	 4.264720 	 0.944750 	 0.705625 	 0.695438 	  
 7.004325 	 4.169692 	 3.431562 	 0.947750 	 0.706375 	 0.693375 	  
 12.325528 	 6.056086 	 2.606265 	 0.944688 	 0.707125 	 0.695562 	  
 12.105449 	 7.011859 	 2.527665 	 0.947063 	 0.705375 	 0.693375 	  
 9.841776 	 6.282453 	 4.508379 	 0.944937 	 0.707250 	 0.695438 	  
 7.483784 	 4.207420 	 3.125023 	 0.945875 	 0.705500 	 0.693375 	  
 6.666346 	 2.572545 	 2.236846 	 0.946875 	 0.707313 	 0.695000 	  
 8.851419 	 0.598120 	 3.604482 	 0.945125 	 0.705313 	 0.693500 	  
 11.531671 	 -0.760084 	 -1.480922 	 0.947500 	 0.707313 	 0.694125 	  
 13.905383 	 0.132809 	 0.767031 	 0.944688 	 0.705187 	 0.695250 	  
 13.103666 	 1.968899 	 0.319013 	 0.947625 	 0.706562 	 0.693438 	  
 8.010402 	 4.873946 	 1.545169 	 0.944688 	 0.705625 	 0.695438 	  
 3.954655 	 8.244303 	 2.574825 	 0.947438 	 0.705562 	 0.693500 	  
 5.416610 	 9.288108 	 3.376543 	 0.944813 	 0.707375 	 0.695500 	  
 11.547391 	 5.729111 	 2.787045 	 0.947313 	 0.705250 	 0.693438 	  
 17.127973 	 2.220419 	 7.361550 	 0.944688 	 0.707438 	 0.695500 	  
 20.012583 	 2.798913 	 7.911748 	 0.945750 	 0.705625 	 0.693438 	  
 20.193363 	 6.923827 	 7.699529 	 0.947375 	 0.707375 	 0.694562 	  
 13.135105 	 9.715690 	 8.351907 	 0.945000 	 0.705375 	 0.693875 	  
 2.736359 	 8.986285 	 6.732752 	 0.947562 	 0.707250 	 0.694063 	  
 -0.470510 	 7.904752 	 9.130044 	 0.944875 	 0.705187 	 0.695250 	  
 6.477707 	 7.037011 	 8.320467 	 0.947562 	 0.706375 	 0.693562 	  
 12.797127 	 7.829296 	 7.848868 	 0.944750 	 0.705500 	 0.695562 	  
 13.677444 	 9.262956 	 6.992131 	 0.947625 	 0.706000 	 0.693375 	  
 12.309808 	 10.130697 	 4.972118 	 0.944625 	 0.706500 	 0.695562 	  
 8.442701 	 8.470670 	 5.993914 	 0.947438 	 0.705313 	 0.693500 	  
 5.007892 	 7.112467 	 2.912804 	 0.944750 	 0.706813 	 0.695562 	  
 5.636690 	 6.018358 	 2.889224 	 0.946125 	 0.704813 	 0.693375 	  
 8.859279 	 4.811066 	 0.429052 	 0.946250 	 0.707000 	 0.695313 	  
 10.816413 	 2.974976 	 2.276146 	 0.945250 	 0.705063 	 0.693500 	  
 10.989332 	 2.987552 	 0.531232 	 0.947438 	 0.707063 	 0.694125 	  
 7.578103 	 5.163193 	 -0.655624 	 0.944813 	 0.705250 	 0.695375 	  
 1.840322 	 6.232150 	 2.118947 	 0.947750 	 0.706500 	 0.693625 	  
 1.384444 	 6.433365 	 4.822778 	 0.944875 	 0.705688 	 0.695500 	  
 8.867139 	 5.389560 	 5.648075 	 0.947688 	 0.705562 	 0.693625 	  
 15.233719 	 4.421211 	 2.181827 	 0.944875 	 0.707375 	 0.695625 	  
 16.231935 	 3.415135 	 4.374759 	 0.946625 	 0.705063 	 0.693375 	  
 14.809280 	 3.452863 	 5.310096 	 0.945250 	 0.707125 	 0.695688 	  
 11.783190 	 5.087737 	 5.671655 	 0.945750 	 0.705187 	 0.693562 	  
 7.680283 	 8.168847 	 5.019277 	 0.947500 	 0.707125 	 0.694750 	  
 5.479490 	 10.042665 	 7.141470 	 0.944937 	 0.705063 	 0.694125 	  
 10.729953 	 9.791146 	 9.114324 	 0.947625 	 0.707187 	 0.694125 	  
 15.571698 	 10.948134 	 4.005341 	 0.945000 	 0.705125 	 0.695250 	  
 15.642437 	 10.193577 	 2.354746 	 0.947688 	 0.706750 	 0.693750 	  
 11.005052 	 8.583854 	 3.973901 	 0.944875 	 0.705000 	 0.695500 	  
 5.479490 	 7.502321 	 2.472646 	 0.947750 	 0.705750 	 0.693500 	  
 2.524140 	 7.150195 	 3.856001 	 0.944813 	 0.706562 	 0.695500 	  
 4.866412 	 6.169270 	 -2.730658 	 0.947750 	 0.705125 	 0.693562 	  
 9.991116 	 6.948979 	 -2.652058 	 0.944937 	 0.707063 	 0.695562 	  
 11.673150 	 8.609006 	 -0.089706 	 0.946125 	 0.705000 	 0.693562 	  
 9.700297 	 9.476747 	 5.286516 	 0.946875 	 0.707125 	 0.695188 	  
 5.455910 	 9.765994 	 4.343320 	 0.945313 	 0.704937 	 0.693750 	  
 0.975725 	 8.319759 	 0.523372 	 0.947625 	 0.706875 	 0.694188 	  
 1.376584 	 6.622004 	 3.745961 	 0.944875 	 0.704937 	 0.695438 	  
 6.988605 	 7.263378 	 5.011417 	 0.947875 	 0.706187 	 0.693500 	  
 12.278368 	 8.973709 	 7.282950 	 0.944937 	 0.705187 	 0.695625 	  
 14.848580 	 9.476747 	 5.538036 	 0.947688 	 0.704937 	 0.693562 	  
 14.597061 	 10.269032 	 5.042857 	 0.944813 	 0.706625 	 0.695562 	  
 8.930019 	 11.325413 	 5.011417 	 0.947500 	 0.704500 	 0.693500 	  
 1.690983 	 11.300261 	 5.341536 	 0.944688 	 0.706187 	 0.695688 	  
 -0.069652 	 9.866602 	 3.321523 	 0.946000 	 0.704375 	 0.693438 	  
 5.707430 	 8.898253 	 5.883875 	 0.946562 	 0.706250 	 0.695250 	  
 10.266215 	 9.376139 	 4.217560 	 0.945188 	 0.704375 	 0.693500 	  
 11.767470 	 10.319336 	 0.908511 	 0.947562 	 0.706500 	 0.694188 	  
 11.476651 	 11.526628 	 -2.062560 	 0.945000 	 0.704438 	 0.695313 	  
 8.269781 	 11.036166 	 -3.060776 	 0.947750 	 0.705500 	 0.693688 	  
 3.215818 	 9.866602 	 -1.622401 	 0.944937 	 0.705375 	 0.695625 	  
 4.025395 	 7.955056 	 1.175750 	 0.947937 	 0.704688 	 0.693562 	  
 11.728170 	 5.540472 	 1.592328 	 0.944875 	 0.706375 	 0.695625 	  
 16.483455 	 3.905597 	 1.317229 	 0.946188 	 0.704500 	 0.693500 	  
 15.430218 	 4.383484 	 4.076080 	 0.946937 	 0.706313 	 0.695188 	  
 12.396268 	 6.320181 	 6.489093 	 0.945125 	 0.704375 	 0.693813 	  
 10.926453 	 7.628081 	 3.007124 	 0.947625 	 0.706562 	 0.694188 	  
 8.482001 	 7.112467 	 5.883875 	 0.945125 	 0.704375 	 0.695375 	  
 10.030416 	 5.880023 	 4.704878 	 0.947750 	 0.705750 	 0.693688 	  
 15.886097 	 5.905175 	 2.566965 	 0.944875 	 0.704688 	 0.695625 	  
 19.203006 	 6.496245 	 3.643782 	 0.948000 	 0.704500 	 0.693500 	  
 16.444155 	 7.665809 	 7.691669 	 0.944875 	 0.705937 	 0.695625 	  
 11.067932 	 8.332335 	 4.807058 	 0.946562 	 0.704187 	 0.693562 	  
 5.306571 	 8.998861 	 4.233280 	 0.945063 	 0.706063 	 0.695625 	  
 2.131141 	 7.716113 	 3.973901 	 0.945750 	 0.703937 	 0.693562 	  
 4.992172 	 5.226073 	 3.942461 	 0.947500 	 0.705937 	 0.694625 	  
 11.107232 	 5.024857 	 7.495169 	 0.945125 	 0.704187 	 0.694438 	  
 14.683520 	 5.578200 	 5.380836 	 0.947813 	 0.705937 	 0.693937 	  
 14.612781 	 7.099891 	 5.490876 	 0.945063 	 0.704000 	 0.695688 	  
 11.366611 	 9.451595 	 5.530176 	 0.947750 	 0.705438 	 0.693562 	  
 6.556307 	 11.853603 	 5.404416 	 0.945000 	 0.704750 	 0.695500 	  
 4.607033 	 11.099046 	 4.531959 	 0.947750 	 0.704688 	 0.693625 	  
 10.384114 	 9.791146 	 3.997481 	 0.944813 	 0.706375 	 0.695562 	  
 15.956836 	 8.005360 	 4.987837 	 0.947500 	 0.704250 	 0.693375 	  
 15.807497 	 8.269455 	 6.064654 	 0.944937 	 0.706187 	 0.695625 	  
 9.590257 	 9.841450 	 5.797415 	 0.945625 	 0.704187 	 0.693500 	  
 3.247257 	 9.791146 	 9.020004 	 0.947250 	 0.706063 	 0.694813 	  
 -2.773483 	 8.206575 	 8.241867 	 0.945250 	 0.703875 	 0.693625 	  
 -3.268661 	 6.295029 	 6.992131 	 0.947625 	 0.706063 	 0.694000 	  
 1.266544 	 5.527896 	 8.171127 	 0.945000 	 0.704063 	 0.695000 	  
 5.628830 	 5.427288 	 5.459436 	 0.947688 	 0.705813 	 0.693625 	  
 8.010402 	 6.056086 	 5.278657 	 0.944875 	 0.704125 	 0.695500 	  
 6.886426 	 4.886522 	 1.922447 	 0.947875 	 0.705063 	 0.693375 	  
 2.728499 	 2.886944 	 -1.370882 	 0.944937 	 0.705688 	 0.695625 	  
 -0.800629 	 1.352677 	 -2.518438 	 0.947500 	 0.704500 	 0.693562 	  
 3.632396 	 0.321449 	 -2.314079 	 0.945438 	 0.706500 	 0.695438 	  
 15.194419 	 -1.414034 	 2.205406 	 0.945562 	 0.704438 	 0.693375 	  
 21.694618 	 -2.181167 	 4.076080 	 0.947562 	 0.706250 	 0.694438 	  
 18.597788 	 0.459784 	 4.492659 	 0.945250 	 0.704250 	 0.694125 	  
 12.506308 	 3.490590 	 6.559832 	 0.947688 	 0.706125 	 0.693813 	  
 6.469847 	 5.100313 	 3.030704 	 0.945000 	 0.704187 	 0.695438 	  
 3.671696 	 4.207420 	 -0.836404 	 0.947937 	 0.705625 	 0.693500 	  
 6.949305 	 4.106812 	 -2.887857 	 0.944937 	 0.705688 	 0.695500 	  
 12.034709 	 4.219996 	 -2.251199 	 0.947875 	 0.704750 	 0.693500 	  
 16.098316 	 4.949402 	 0.680571 	 0.944937 	 0.706562 	 0.695500 	  
 17.308752 	 5.351832 	 3.856001 	 0.946500 	 0.704562 	 0.693375 	  
 14.597061 	 6.219574 	 3.274363 	 0.946438 	 0.706375 	 0.695438 	  
 7.601683 	 7.037011 	 2.920664 	 0.945375 	 0.704625 	 0.693500 	  
 4.206174 	 6.169270 	 3.376543 	 0.947750 	 0.706313 	 0.694125 	  
 7.263704 	 7.250802 	 4.264720 	 0.945000 	 0.704250 	 0.695188 	  
 12.679227 	 9.728266 	 4.429779 	 0.947625 	 0.706125 	 0.693625 	  
 13.528104 	 10.394792 	 5.215777 	 0.945125 	 0.704313 	 0.695375 	  
 9.888936 	 8.395215 	 5.215777 	 0.947937 	 0.705125 	 0.693562 	  
 4.041115 	 7.741265 	 2.873504 	 0.944937 	 0.705813 	 0.695562 	  
 -1.767406 	 7.879600 	 4.382619 	 0.948000 	 0.704813 	 0.693375 	  
 -1.665227 	 8.282031 	 5.852435 	 0.944875 	 0.706313 	 0.695500 	  
 4.379094 	 7.363986 	 8.454086 	 0.946313 	 0.704500 	 0.693500 	  
 9.433057 	 6.948979 	 9.633082 	 0.945063 	 0.706313 	 0.695438 	  
 10.226915 	 7.389138 	 9.397283 	 0.945937 	 0.704125 	 0.693312 	  
 8.592040 	 7.125043 	 8.579846 	 0.947063 	 0.706375 	 0.695000 	  
 2.893559 	 5.163193 	 9.137904 	 0.945375 	 0.704313 	 0.693500 	  
 -2.026785 	 2.295874 	 9.302963 	 0.947750 	 0.706313 	 0.694125 	  
 -0.863509 	 2.383906 	 11.998935 	 0.944875 	 0.704125 	 0.695000 	  
 7.020045 	 4.358332 	 7.668089 	 0.947688 	 0.706187 	 0.693688 	  
 13.465224 	 6.118966 	 2.826344 	 0.944937 	 0.704250 	 0.695313 	  
 14.604921 	 5.804567 	 -0.411965 	 0.947750 	 0.705375 	 0.693562 	  
 12.977906 	 6.722612 	 4.924958 	 0.945000 	 0.704813 	 0.695500 	  
 9.040059 	 7.024435 	 9.295104 	 0.948000 	 0.705125 	 0.693375 	  
 6.406967 	 7.250802 	 8.029648 	 0.945000 	 0.706375 	 0.695625 	  
 8.639200 	 7.363986 	 -12.139047 	 0.947750 	 0.705063 	 0.693438 	  
 14.565621 	 7.162771 	 -29.344531 	 0.945063 	 0.706313 	 0.695500 	  
 19.580285 	 8.244303 	 -22.529933 	 0.945625 	 0.704750 	 0.693375 	  
 19.871104 	 9.803722 	 -7.658862 	 0.947750 	 0.706813 	 0.694000 	  
 15.461658 	 9.602507 	 -4.294792 	 0.945250 	 0.704875 	 0.695500 	  
 9.605977 	 8.609006 	 -1.567381 	 0.947813 	 0.705750 	 0.693625 	  
 4.905712 	 8.206575 	 1.686648 	 0.944937 	 0.705562 	 0.695562 	  
 8.309081 	 8.181423 	 5.671655 	 0.948000 	 0.704937 	 0.693438 	  
 15.996136 	 7.728689 	 9.381563 	 0.945000 	 0.706750 	 0.695562 	  
 19.320905 	 6.697460 	 10.859238 	 0.946688 	 0.704688 	 0.693438 	  
 16.939333 	 6.005782 	 5.538036 	 0.945313 	 0.706438 	 0.695500 	  
 13.032926 	 6.420789 	 6.017494 	 0.945875 	 0.704375 	 0.693375 	  
 9.480217 	 9.564779 	 5.852435 	 0.947438 	 0.706250 	 0.694625 	  
 7.279424 	 13.098623 	 8.949265 	 0.945188 	 0.704500 	 0.694063 	  
 10.564894 	 13.739997 	 9.035724 	 0.947688 	 0.706375 	 0.693813 	  
 15.744617 	 13.324991 	 9.420863 	 0.944937 	 0.704625 	 0.695500 	  
 17.332332 	 12.746496 	 10.371920 	 0.947937 	 0.705875 	 0.693500 	  
 14.526321 	 10.130697 	 8.037508 	 0.945000 	 0.704937 	 0.695438 	  
 7.185105 	 7.175347 	 11.205077 	 0.947875 	 0.705063 	 0.693375 	  
 0.079688 	 7.791569 	 10.733479 	 0.944937 	 0.705937 	 0.695438 	  
 -1.397987 	 8.533550 	 7.377270 	 0.947875 	 0.704750 	 0.693312 	  
 7.790323 	 9.124620 	 5.986054 	 0.944875 	 0.706375 	 0.695500 	  
 15.422358 	 9.363563 	 5.034997 	 0.946625 	 0.704750 	 0.693375 	  
 13.363045 	 8.860525 	 3.242923 	 0.945125 	 0.706313 	 0.695375 	  
 7.185105 	 8.822797 	 0.004614 	 0.945688 	 0.704438 	 0.693500 	  
 0.708486 	 8.697038 	 -2.997897 	 0.947562 	 0.706313 	 0.694250 	  
 -4.534117 	 7.728689 	 0.381892 	 0.944937 	 0.704313 	 0.694875 	  
 -3.127182 	 5.880023 	 -0.144726 	 0.947688 	 0.705875 	 0.693688 	  
 4.465554 	 5.955478 	 3.227203 	 0.944937 	 0.704688 	 0.695375 	  
 9.645277 	 5.314105 	 1.647348 	 0.948063 	 0.705000 	 0.693250 	  
 8.301221 	 5.037433 	 0.106793 	 0.944937 	 0.706375 	 0.695500 	  
 4.245474 	 5.603352 	 1.301509 	 0.947313 	 0.704813 	 0.693375 	  
 2.932859 	 7.414290 	 -0.003246 	 0.945562 	 0.706625 	 0.695438 	  
 3.184378 	 7.552625 	 -0.443405 	 0.945562 	 0.704688 	 0.693312 	  
 6.234048 	 5.993206 	 -1.363022 	 0.947688 	 0.707000 	 0.694063 	  
 9.723877 	 5.766839 	 0.814191 	 0.945125 	 0.704813 	 0.695188 	  
 12.011129 	 5.037433 	 3.407983 	 0.947875 	 0.706000 	 0.693500 	  
 12.239068 	 4.119388 	 5.876015 	 0.944875 	 0.705562 	 0.695562 	  
 10.203335 	 4.408635 	 5.278657 	 0.947813 	 0.705187 	 0.693438 	  
 4.732793 	 5.603352 	 2.621985 	 0.945063 	 0.706750 	 0.695500 	  
 0.535566 	 5.389560 	 9.971061 	 0.946375 	 0.704750 	 0.693500 	  
 4.772093 	 5.917751 	 14.891405 	 0.945937 	 0.706750 	 0.695438 	  
 11.374471 	 6.383061 	 15.252964 	 0.945625 	 0.704625 	 0.693375 	  
 14.667801 	 4.484091 	 8.202567 	 0.947688 	 0.706813 	 0.694500 	  
 13.025066 	 3.402559 	 8.579846 	 0.945125 	 0.704500 	 0.694250 	  
 8.324801 	 4.018781 	 9.916042 	 0.947813 	 0.706500 	 0.693688 	  
 3.215818 	 3.968477 	 9.578063 	 0.945000 	 0.704750 	 0.695438 	  
 2.689199 	 2.383906 	 8.564126 	 0.947875 	 0.705813 	 0.693562 	  
 7.593823 	 2.622849 	 3.753821 	 0.945125 	 0.705063 	 0.695438 	  
 12.600627 	 4.333180 	 -2.510578 	 0.947937 	 0.704875 	 0.693438 	  
 14.754260 	 6.923827 	 -0.459125 	 0.945000 	 0.706813 	 0.695562 	  
 13.315885 	 9.665386 	 1.568749 	 0.946375 	 0.704562 	 0.693375 	  
 10.902873 	 11.413445 	 1.505869 	 0.946875 	 0.706688 	 0.695125 	  
 8.301221 	 12.268610 	 3.258643 	 0.945438 	 0.704875 	 0.693438 	  
 8.104722 	 11.740420 	 2.260426 	 0.947813 	 0.706688 	 0.694125 	  
 9.613837 	 12.658465 	 6.622712 	 0.945000 	 0.704688 	 0.694875 	  
 9.330878 	 11.488901 	 5.632355 	 0.947625 	 0.706313 	 0.693688 	  
 8.033982 	 8.973709 	 2.629845 	 0.945063 	 0.704500 	 0.695313 	  
 7.821763 	 6.420789 	 1.254350 	 0.947813 	 0.705250 	 0.693375 	  
 6.265488 	 7.099891 	 5.585196 	 0.944750 	 0.706375 	 0.695500 	  
 3.121498 	 8.835373 	 3.525882 	 0.947875 	 0.704875 	 0.693375 	  
 7.672423 	 9.929482 	 5.058577 	 0.944875 	 0.706500 	 0.695500 	  
 13.598844 	 8.986285 	 3.973901 	 0.946063 	 0.704875 	 0.693375 	  
 15.728897 	 9.049164 	 2.063927 	 0.947000 	 0.706813 	 0.695125 	  
 15.147259 	 9.816298 	 1.246490 	 0.945500 	 0.704875 	 0.693625 	  
 13.087946 	 6.798068 	 1.867428 	 0.947813 	 0.706813 	 0.694188 	  
 7.263704 	 3.830141 	 1.419409 	 0.945125 	 0.704875 	 0.695375 	  
 4.379094 	 2.270722 	 2.433346 	 0.948000 	 0.706250 	 0.693438 	  
 9.700297 	 3.012704 	 2.732025 	 0.945063 	 0.705875 	 0.695562 	  
 16.758554 	 2.585121 	 2.118947 	 0.947875 	 0.705187 	 0.693438 	  
 17.088673 	 1.931171 	 -0.710644 	 0.945188 	 0.706750 	 0.695500 	  
 12.946466 	 2.069507 	 0.806331 	 0.946438 	 0.704750 	 0.693562 	  
 7.923942 	 2.597697 	 2.944244 	 0.946438 	 0.706688 	 0.695250 	  
 2.241181 	 3.754686 	 7.903888 	 0.945562 	 0.704750 	 0.693312 	  
 3.247257 	 5.553048 	 7.345830 	 0.947688 	 0.706750 	 0.694250 	  
 12.168329 	 7.401714 	 6.583412 	 0.945000 	 0.704750 	 0.695000 	  
 19.085106 	 7.703537 	 2.920664 	 0.947937 	 0.706625 	 0.693500 	  
 17.104393 	 7.313682 	 -1.135083 	 0.944937 	 0.704562 	 0.695313 	  
 12.467008 	 6.508821 	 -0.066126 	 0.947937 	 0.705438 	 0.693500 	  
 8.285501 	 6.408213 	 0.240413 	 0.945063 	 0.706250 	 0.695500 	  
 4.882132 	 6.684884 	 3.242923 	 0.947937 	 0.704813 	 0.693438 	  
 6.689926 	 8.898253 	 5.663795 	 0.944937 	 0.706625 	 0.695562 	  
 11.948249 	 9.388715 	 4.319740 	 0.946000 	 0.704813 	 0.693312 	  
 13.677444 	 7.024435 	 5.121457 	 0.947813 	 0.706562 	 0.694625 	  
 12.184049 	 7.137619 	 2.095367 	 0.945313 	 0.704750 	 0.693688 	  
 9.252278 	 9.099468 	 3.903161 	 0.947875 	 0.706562 	 0.693937 	  
 5.259411 	 10.357064 	 3.730242 	 0.945188 	 0.704500 	 0.695188 	  
 0.912845 	 9.854026 	 4.995697 	 0.947750 	 0.705562 	 0.693500 	  
 2.830679 	 10.558280 	 3.360823 	 0.945063 	 0.705375 	 0.695375 	  
 8.827839 	 12.960288 	 5.585196 	 0.947937 	 0.704625 	 0.693375 	  
 12.239068 	 13.236959 	 5.522316 	 0.944875 	 0.706187 	 0.695500 	  
 11.193692 	 12.507553 	 6.001774 	 0.946625 	 0.704562 	 0.693438 	  
 6.925726 	 11.639812 	 7.047151 	 0.945500 	 0.706250 	 0.695375 	  
 0.118988 	 10.922982 	 6.001774 	 0.945750 	 0.704063 	 0.693438 	  
 -1.531607 	 9.879178 	 4.547679 	 0.947313 	 0.706187 	 0.694813 	  
 4.984312 	 6.999283 	 6.489093 	 0.945500 	 0.704063 	 0.693500 	  
 11.311591 	 4.672731 	 3.282223 	 0.947875 	 0.706250 	 0.694125 	  
 10.910733 	 6.357909 	 4.445499 	 0.945125 	 0.704562 	 0.695313 	  
 7.798183 	 7.540049 	 0.955671 	 0.948063 	 0.705813 	 0.693500 	  
 4.386954 	 5.817143 	 2.865644 	 0.945188 	 0.705375 	 0.695500 	  
 2.201881 	 5.012282 	 2.464786 	 0.947937 	 0.704875 	 0.693438 	  
 3.828896 	 7.376562 	 3.816701 	 0.945063 	 0.706438 	 0.695500 	  
 9.739596 	 8.080816 	 2.834204 	 0.947313 	 0.704313 	 0.693375 	  
 15.563838 	 7.804144 	 1.348669 	 0.945125 	 0.706688 	 0.695500 	  
 16.349835 	 7.452018 	 -1.708861 	 0.946188 	 0.704750 	 0.693375 	  
 14.211922 	 5.188345 	 -1.308002 	 0.947562 	 0.706688 	 0.694750 	  
 10.769253 	 0.937671 	 2.637705 	 0.945375 	 0.704438 	 0.693688 	  
 7.507364 	 -1.149939 	 0.366172 	 0.947937 	 0.706750 	 0.694000 	  
 6.351947 	 0.585544 	 0.059633 	 0.945125 	 0.704688 	 0.695375 	  
 9.794616 	 3.151040 	 -0.687064 	 0.947937 	 0.705688 	 0.693688 	  
 13.339465 	 5.427288 	 0.900651 	 0.945188 	 0.705313 	 0.695375 	  
 13.881803 	 5.666231 	 2.991404 	 0.948125 	 0.704813 	 0.693375 	  
 11.115092 	 5.213497 	 7.165050 	 0.944937 	 0.706313 	 0.695562 	  
 6.131868 	 6.118966 	 3.463002 	 0.946562 	 0.704562 	 0.693438 	  
 1.722422 	 7.653233 	 5.593055 	 0.946000 	 0.706313 	 0.695562 	  
 2.327640 	 8.282031 	 3.235063 	 0.945750 	 0.704562 	 0.693500 	  
 8.906439 	 8.068240 	 2.865644 	 0.947750 	 0.706562 	 0.694375 	  
 14.479161 	 6.609428 	 6.889951 	 0.945313 	 0.704688 	 0.694438 	  
 14.746400 	 4.496667 	 3.643782 	 0.947750 	 0.706750 	 0.694000 	  
 12.993626 	 4.157116 	 2.842064 	 0.945063 	 0.704875 	 0.695438 	  
 10.470574 	 3.490590 	 4.728458 	 0.948125 	 0.705500 	 0.693375 	  
 10.226915 	 4.521819 	 5.223637 	 0.945063 	 0.705500 	 0.695438 	  
 12.687087 	 6.383061 	 7.361550 	 0.947937 	 0.705125 	 0.693438 	  
 14.652081 	 6.672308 	 8.312607 	 0.945063 	 0.706438 	 0.695438 	  
 14.628501 	 6.420789 	 7.322250 	 0.946937 	 0.704562 	 0.693375 	  
 11.869650 	 6.898675 	 3.423703 	 0.945250 	 0.706688 	 0.695500 	  
 6.634907 	 6.081238 	 3.966041 	 0.946000 	 0.704688 	 0.693125 	  
 2.351220 	 4.169692 	 0.201113 	 0.947625 	 0.706750 	 0.694438 	  
 1.007165 	 3.465439 	 0.735591 	 0.945063 	 0.704688 	 0.695188 	  
 5.204391 	 3.578622 	 3.235063 	 0.947937 	 0.706187 	 0.693500 	  
 8.992899 	 3.742110 	 1.615908 	 0.945125 	 0.704750 	 0.695375 	  
 10.902873 	 2.597697 	 3.415843 	 0.948063 	 0.705500 	 0.693500 	  
 9.857496 	 1.767684 	 6.292593 	 0.945125 	 0.706937 	 0.695500 	  
 6.320508 	 2.195267 	 2.920664 	 0.947250 	 0.705313 	 0.693375 	  
 4.512713 	 4.358332 	 3.518022 	 0.945438 	 0.707063 	 0.695625 	  
 7.043625 	 5.364408 	 2.716305 	 0.945813 	 0.705313 	 0.693438 	  
 14.369121 	 5.251225 	 6.001774 	 0.947875 	 0.707438 	 0.694438 	  
 19.745344 	 6.848372 	 1.277929 	 0.945313 	 0.705250 	 0.693813 	  
 20.437022 	 8.609006 	 -1.677421 	 0.947937 	 0.707125 	 0.693937 	  
 15.155119 	 8.231727 	 -1.150803 	 0.945250 	 0.704875 	 0.695313 	  
 8.922159 	 6.659732 	 -4.562032 	 0.948000 	 0.705875 	 0.693500 	  
 4.449834 	 8.143695 	 -0.459125 	 0.945063 	 0.706750 	 0.695500 	  
 4.622753 	 8.847949 	 2.071787 	 0.947937 	 0.705000 	 0.693250 	  
 10.391974 	 9.363563 	 2.582685 	 0.945250 	 0.706625 	 0.695625 	  
 16.074736 	 10.897830 	 8.516966 	 0.945937 	 0.704875 	 0.693438 	  
 15.721037 	 12.092547 	 3.148603 	 0.947562 	 0.706875 	 0.694750 	  
 10.965752 	 12.595585 	 4.123240 	 0.945250 	 0.704500 	 0.693625 	  
 5.314431 	 11.488901 	 2.173967 	 0.947813 	 0.706937 	 0.693750 	  
 3.632396 	 10.709191 	 5.624495 	 0.945250 	 0.704813 	 0.695438 	  
 7.751023 	 10.294184 	 5.420136 	 0.948063 	 0.705438 	 0.693438 	  
 12.749967 	 10.885255 	 5.113597 	 0.945000 	 0.706500 	 0.695562 	  
 13.064366 	 11.300261 	 7.463729 	 0.947625 	 0.705000 	 0.693250 	  
 9.228698 	 10.709191 	 6.834931 	 0.945250 	 0.706937 	 0.695500 	  
 4.701353 	 9.577355 	 8.068947 	 0.945937 	 0.704750 	 0.693312 	  
 1.667403 	 9.413867 	 9.436583 	 0.947688 	 0.706562 	 0.694500 	  
 2.909279 	 9.401291 	 5.954614 	 0.945313 	 0.704562 	 0.694250 	  
 7.876782 	 7.439442 	 5.640215 	 0.947750 	 0.706500 	 0.693688 	  
 9.220838 	 5.854871 	 4.830638 	 0.945063 	 0.704625 	 0.695375 	  
 9.150098 	 5.930327 	 5.239357 	 0.947875 	 0.705250 	 0.693312 	  
 7.806043 	 7.464594 	 4.453359 	 0.944875 	 0.706438 	 0.695500 	  
 3.789596 	 8.407791 	 5.687375 	 0.947875 	 0.705000 	 0.693312 	  
 -0.439071 	 9.539627 	 7.471589 	 0.945125 	 0.706750 	 0.695438 	  
 0.629886 	 9.992361 	 5.687375 	 0.946188 	 0.704750 	 0.693375 	  
 7.287284 	 9.753418 	 6.127534 	 0.947750 	 0.706875 	 0.694438 	  
 12.129029 	 7.514897 	 6.701312 	 0.945375 	 0.704875 	 0.694188 	  
 12.993626 	 4.446363 	 5.868155 	 0.947875 	 0.707000 	 0.693562 	  
 10.541314 	 4.433787 	 6.465513 	 0.945188 	 0.705125 	 0.695438 	  
 7.185105 	 5.993206 	 6.717032 	 0.948125 	 0.705937 	 0.693438 	  
 5.110071 	 7.778993 	 6.449793 	 0.945063 	 0.706500 	 0.695500 	  
 7.609543 	 7.980208 	 7.581629 	 0.947875 	 0.705187 	 0.693438 	  
 14.031143 	 7.690961 	 2.095367 	 0.945188 	 0.706937 	 0.695500 	  
 17.363772 	 7.942480 	 4.052500 	 0.946438 	 0.704875 	 0.693312 	  
 16.499175 	 8.860525 	 4.571259 	 0.946250 	 0.707000 	 0.695375 	  
 14.864300 	 9.376139 	 5.561616 	 0.945750 	 0.704875 	 0.693250 	  
 11.625990 	 8.533550 	 2.394046 	 0.947813 	 0.706937 	 0.694063 	  
 7.012185 	 8.697038 	 4.398339 	 0.945125 	 0.705000 	 0.695375 	  
 8.033982 	 9.841450 	 2.535525 	 0.948063 	 0.706500 	 0.693438 	  
 12.246928 	 10.357064 	 2.873504 	 0.945125 	 0.705063 	 0.695375 	  
 13.763903 	 9.652810 	 3.675222 	 0.947875 	 0.705937 	 0.693312 	  
 12.742107 	 8.810221 	 4.956398 	 0.945188 	 0.707125 	 0.695438 	  
 10.816413 	 8.269455 	 4.445499 	 0.946750 	 0.705125 	 0.693312 	  
 7.696003 	 8.646734 	 2.669145 	 0.945375 	 0.707187 	 0.695500 	  
 3.655976 	 9.011437 	 1.018550 	 0.945937 	 0.705187 	 0.693312 	  
 5.841049 	 8.030512 	 3.753821 	 0.947875 	 0.707187 	 0.694188 	  
 12.317668 	 7.527473 	 4.901378 	 0.945125 	 0.705250 	 0.694500 	  
 16.632794 	 7.301106 	 2.677005 	 0.947813 	 0.707313 	 0.693688 	  
 12.726387 	 6.659732 	 2.904944 	 0.945250 	 0.705125 	 0.695250 	  
 5.086492 	 5.150617 	 3.266503 	 0.947750 	 0.705813 	 0.693250 	  
 -1.382268 	 5.138041 	 1.678788 	 0.945000 	 0.706875 	 0.695500 	  
 -0.706310 	 6.244726 	 3.604482 	 0.948000 	 0.705375 	 0.693188 	  
 6.697786 	 7.992784 	 6.284733 	 0.944875 	 0.706875 	 0.695500 	  
 10.415554 	 7.665809 	 4.461219 	 0.946063 	 0.705313 	 0.693250 	  
 7.868923 	 6.282453 	 4.390479 	 0.946750 	 0.707000 	 0.695063 	  
 2.445540 	 5.364408 	 3.266503 	 0.945438 	 0.705250 	 0.693250 	  
 -0.329031 	 5.527896 	 3.407983 	 0.947688 	 0.707313 	 0.694000 	  
 -1.122888 	 6.320181 	 3.125023 	 0.945188 	 0.705063 	 0.695250 	  
 3.663836 	 5.766839 	 5.931034 	 0.948063 	 0.706063 	 0.693312 	  
 10.910733 	 6.357909 	 6.850651 	 0.945063 	 0.706187 	 0.695375 	  
 15.320178 	 7.703537 	 5.742395 	 0.948125 	 0.705625 	 0.693250 	  
 14.266942 	 9.778570 	 3.958181 	 0.945188 	 0.707187 	 0.695500 	  
 11.971829 	 9.061740 	 5.813135 	 0.947375 	 0.705438 	 0.693312 	  
 9.959676 	 6.584276 	 9.609502 	 0.945500 	 0.707500 	 0.695438 	  
 7.939662 	 5.238649 	 5.907454 	 0.946250 	 0.705375 	 0.693250 	  
 9.731736 	 5.288953 	 -1.370882 	 0.947313 	 0.707500 	 0.694813 	  
 13.905383 	 4.295452 	 -3.115796 	 0.945438 	 0.705438 	 0.693500 	  
 15.980416 	 1.189190 	 -4.860711 	 0.947937 	 0.707313 	 0.693750 	  
 13.850363 	 -0.345077 	 -3.280856 	 0.945125 	 0.705187 	 0.695375 	  
 9.771036 	 0.032202 	 -0.278345 	 0.948000 	 0.706688 	 0.693250 	  
 7.491644 	 2.270722 	 5.907454 	 0.945125 	 0.706562 	 0.695313 	  
 8.356241 	 4.622427 	 3.596622 	 0.947875 	 0.705438 	 0.693250 	  
 13.834643 	 6.282453 	 1.521589 	 0.945000 	 0.707187 	 0.695375 	  
 15.956836 	 6.898675 	 2.213266 	 0.946438 	 0.705313 	 0.693250 	  
 14.840720 	 6.634580 	 4.995697 	 0.947250 	 0.707187 	 0.695000 	  
 12.419848 	 5.917751 	 6.135394 	 0.945438 	 0.705750 	 0.693500 	  
 8.269781 	 4.773338 	 3.643782 	 0.947937 	 0.707562 	 0.694188 	  
 0.669186 	 4.207420 	 5.993914 	 0.945188 	 0.705500 	 0.694625 	  
 -1.303668 	 4.006205 	 5.050717 	 0.947937 	 0.707500 	 0.693688 	  
 6.517007 	 6.571700 	 8.406926 	 0.945313 	 0.705562 	 0.695188 	  
 12.915026 	 8.986285 	 1.301509 	 0.948063 	 0.706063 	 0.693375 	  
 11.319451 	 9.891754 	 2.983544 	 0.945000 	 0.706313 	 0.695375 	  
 7.876782 	 9.338412 	 1.254350 	 0.948125 	 0.705500 	 0.693188 	  
 6.721366 	 8.219151 	 3.635922 	 0.945000 	 0.707125 	 0.695313 	  
 3.648116 	 5.452440 	 6.072514 	 0.947188 	 0.705000 	 0.693375 	  
 1.376584 	 2.861792 	 12.313334 	 0.945375 	 0.707000 	 0.695250 	  
 4.669913 	 2.648001 	 16.620600 	 0.946125 	 0.705125 	 0.693125 	  
 12.011129 	 3.767262 	 15.583083 	 0.945937 	 0.707000 	 0.695250 	  
 15.909676 	 4.232572 	 5.577336 	 0.945875 	 0.705063 	 0.693063 	  
 13.976123 	 3.025280 	 -26.735020 	 0.947438 	 0.707250 	 0.694562 	  
 5.888209 	 2.321026 	 -21.185878 	 0.945063 	 0.705187 	 0.695000 	  
 1.132924 	 2.547393 	 -11.423789 	 0.948000 	 0.706250 	 0.693312 	  
 3.663836 	 3.628926 	 -2.887857 	 0.945063 	 0.706937 	 0.695375 	  
 9.362318 	 4.232572 	 -1.473062 	 0.947750 	 0.705500 	 0.693375 	  
 14.164762 	 2.798913 	 0.146093 	 0.945250 	 0.707625 	 0.695438 	  
 15.666017 	 0.786759 	 -4.341952 	 0.946125 	 0.705500 	 0.693250 	  
 12.639927 	 2.044355 	 -1.512361 	 0.947500 	 0.707500 	 0.694813 	  
 7.703863 	 3.666654 	 5.325816 	 0.945188 	 0.705562 	 0.693813 	  
 6.422687 	 1.805412 	 11.016438 	 0.947937 	 0.707750 	 0.693750 	  
 11.445211 	 2.031779 	 5.129317 	 0.945188 	 0.705438 	 0.695438 	  
 16.860733 	 6.056086 	 7.738829 	 0.948000 	 0.706313 	 0.693375 	  
 19.344485 	 9.288108 	 5.066437 	 0.945188 	 0.707000 	 0.695438 	  
 17.678171 	 9.036588 	 5.239357 	 0.948000 	 0.705750 	 0.693312 	  
 11.822490 	 8.885677 	 9.185064 	 0.945000 	 0.707625 	 0.695500 	  
 4.717073 	 10.658887 	 6.913531 	 0.946438 	 0.705500 	 0.693250 	  
 3.710996 	 13.601662 	 7.479449 	 0.947188 	 0.707500 	 0.694937 	  
 10.132595 	 15.613815 	 10.513400 	 0.945250 	 0.705688 	 0.693500 	  
 17.159412 	 13.161503 	 11.770995 	 0.947937 	 0.707688 	 0.694188 	  
 17.450232 	 9.652810 	 10.749199 	 0.945250 	 0.705500 	 0.693875 	  
 11.728170 	 9.086892 	 9.782422 	 0.947813 	 0.707562 	 0.693937 	  
 3.310137 	 11.828451 	 7.746689 	 0.945313 	 0.705625 	 0.695313 	  
 -1.956046 	 13.287263 	 5.640215 	 0.947937 	 0.707125 	 0.693500 	  
 -2.922823 	 14.029244 	 3.926741 	 0.945000 	 0.705562 	 0.695313 	  
 1.785302 	 13.098623 	 4.327600 	 0.948063 	 0.706063 	 0.693375 	  
 9.323018 	 12.029667 	 -0.427685 	 0.945188 	 0.706937 	 0.695375 	  
 11.987549 	 13.425598 	 -3.178676 	 0.947813 	 0.705500 	 0.693438 	  
 8.497720 	 15.752151 	 -4.428412 	 0.945125 	 0.707500 	 0.695438 	  
 -0.242571 	 14.544859 	 -1.543801 	 0.946250 	 0.705313 	 0.693125 	  
 -6.106112 	 11.803300 	 0.436912 	 0.947500 	 0.707187 	 0.694562 	  
 -3.606640 	 10.935558 	 3.140743 	 0.945063 	 0.705125 	 0.693750 	  
 3.380877 	 10.080393 	 0.971390 	 0.947813 	 0.707125 	 0.693625 	  
 7.640983 	 7.816720 	 5.404416 	 0.945000 	 0.705250 	 0.695375 	  
 8.112582 	 5.892599 	 5.003557 	 0.947813 	 0.706562 	 0.693438 	  
 7.200825 	 6.961555 	 3.989621 	 0.945125 	 0.705688 	 0.695313 	  
 5.306571 	 8.596430 	 2.897084 	 0.947937 	 0.705813 	 0.693250 	  
 3.687416 	 7.011859 	 3.777401 	 0.945000 	 0.707500 	 0.695438 	  
 6.092568 	 4.861370 	 6.520532 	 0.947438 	 0.705625 	 0.693188 	  
 10.808553 	 4.873946 	 2.881364 	 0.945438 	 0.707375 	 0.695438 	  
 14.109742 	 6.307605 	 3.659502 	 0.945875 	 0.705750 	 0.693250 	  
 15.799637 	 6.496245 	 1.222910 	 0.947937 	 0.707500 	 0.694312 	  
 12.647787 	 5.829719 	 2.889224 	 0.945250 	 0.705500 	 0.694375 	  
 7.436624 	 6.131542 	 0.539092 	 0.947813 	 0.707688 	 0.693688 	  
 6.697786 	 6.722612 	 3.187903 	 0.945313 	 0.705813 	 0.695313 	  
 12.639927 	 5.930327 	 0.295433 	 0.948063 	 0.706187 	 0.693375 	  
 17.450232 	 4.660155 	 -0.333365 	 0.945000 	 0.706875 	 0.695438 	  
 16.782134 	 4.509243 	 1.623768 	 0.948000 	 0.705875 	 0.693312 	  
 13.873943 	 5.075161 	 1.993187 	 0.945063 	 0.707438 	 0.695375 	  
 8.049702 	 2.949824 	 6.151114 	 0.946250 	 0.705313 	 0.693375 	  
 3.365157 	 0.925095 	 4.193980 	 0.946562 	 0.707438 	 0.695250 	  
 5.078632 	 1.868292 	 4.154680 	 0.945562 	 0.705250 	 0.693250 	  
 12.883586 	 4.509243 	 5.545896 	 0.947813 	 0.707625 	 0.694125 	  
 17.803930 	 6.596852 	 4.366899 	 0.945188 	 0.705313 	 0.695125 	  
 17.214432 	 6.496245 	 4.154680 	 0.947937 	 0.706875 	 0.693438 	  
 13.535964 	 6.018358 	 9.876742 	 0.945063 	 0.705562 	 0.695562 	  
 9.032199 	 4.886522 	 9.994641 	 0.947937 	 0.706250 	 0.693438 	  
 5.880349 	 4.584699 	 8.815645 	 0.945188 	 0.706500 	 0.695438 	  
 8.623480 	 4.094236 	 9.302963 	 0.947937 	 0.705875 	 0.693438 	  
 14.604921 	 4.282876 	 9.719542 	 0.945063 	 0.707187 	 0.695438 	  
 16.522755 	 5.691383 	 6.394773 	 0.947813 	 0.705375 	 0.693312 	  
 15.045079 	 7.628081 	 3.738102 	 0.945000 	 0.707438 	 0.695500 	  
 10.336955 	 6.181846 	 0.397612 	 0.946188 	 0.705625 	 0.693188 	  
 5.055052 	 5.037433 	 -0.482705 	 0.946750 	 0.707250 	 0.695125 	  
 1.533783 	 5.364408 	 -4.137593 	 0.945500 	 0.705250 	 0.693375 	  
 5.172951 	 7.162771 	 -4.326232 	 0.947688 	 0.707063 	 0.693813 	  
 11.020772 	 9.162348 	 -1.048623 	 0.945250 	 0.705375 	 0.695313 	  
 12.561327 	 8.156271 	 1.293649 	 0.947937 	 0.705750 	 0.693312 	  
 10.352674 	 6.810644 	 1.600188 	 0.944875 	 0.706313 	 0.695438 	  
 7.868923 	 7.162771 	 3.172183 	 0.947937 	 0.705313 	 0.693312 	  
 4.276914 	 7.867024 	 2.952104 	 0.945125 	 0.707063 	 0.695438 	  
 0.307627 	 7.137619 	 4.414059 	 0.946250 	 0.705625 	 0.693438 	  
 3.506637 	 6.923827 	 2.323306 	 0.947250 	 0.707688 	 0.695063 	  
 9.535237 	 7.049587 	 4.869938 	 0.945438 	 0.705562 	 0.693500 	  
 11.335171 	 6.923827 	 3.832421 	 0.947875 	 0.707813 	 0.694188 	  
 10.541314 	 7.301106 	 4.775618 	 0.945188 	 0.705562 	 0.695250 	  
 7.688143 	 7.338834 	 1.718088 	 0.947937 	 0.706937 	 0.693438 	  
 2.201881 	 8.797645 	 2.307586 	 0.945063 	 0.706000 	 0.695562 	  
 1.793162 	 10.445096 	 -1.260842 	 0.947875 	 0.706125 	 0.693438 	  
 9.503797 	 10.633735 	 1.584468 	 0.945250 	 0.707500 	 0.695438 	  
 16.758554 	 10.143273 	 4.767758 	 0.947813 	 0.705500 	 0.693438 	  
 19.360205 	 11.929059 	 1.285789 	 0.944937 	 0.707250 	 0.695562 	  
 17.780350 	 14.532283 	 5.247217 	 0.946250 	 0.705250 	 0.693188 	  
 12.977906 	 14.129852 	 8.682025 	 0.947063 	 0.707187 	 0.694937 	  
 6.760666 	 11.413445 	 3.557322 	 0.945375 	 0.705250 	 0.693500 	  
 6.807826 	 10.206153 	 1.521589 	 0.948063 	 0.707250 	 0.694125 	  
 12.294088 	 10.545704 	 0.664851 	 0.945063 	 0.705125 	 0.695000 	  
 16.365555 	 9.967209 	 3.242923 	 0.947875 	 0.706937 	 0.693562 	  
 15.555978 	 9.124620 	 4.579119 	 0.945250 	 0.705313 	 0.695438 	  
 10.800693 	 7.137619 	 8.760625 	 0.948125 	 0.705875 	 0.693438 	  
 4.960732 	 6.433365 	 6.127534 	 0.944937 	 0.706875 	 0.695500 	  
 0.645606 	 6.609428 	 4.311880 	 0.948125 	 0.705625 	 0.693375 	  
 2.390520 	 6.357909 	 3.785261 	 0.945125 	 0.707438 	 0.695375 	  
 6.013969 	 4.358332 	 5.467296 	 0.946250 	 0.705250 	 0.693312 	  
 8.104722 	 2.119811 	 6.764192 	 0.946313 	 0.707125 	 0.695188 	  
 8.387681 	 2.773761 	 6.929251 	 0.945688 	 0.704813 	 0.693250 	  
 7.868923 	 5.389560 	 5.255077 	 0.947813 	 0.707063 	 0.694125 	  
 3.844616 	 7.527473 	 6.654152 	 0.945063 	 0.705000 	 0.695125 	  
 1.203664 	 7.049587 	 4.972118 	 0.948063 	 0.706813 	 0.693438 	  
 5.031472 	 6.206998 	 5.679515 	 0.945000 	 0.705000 	 0.695313 	  
 11.814630 	 5.779415 	 4.964258 	 0.947937 	 0.705688 	 0.693250 	  
 14.180482 	 4.685307 	 3.077864 	 0.945125 	 0.705937 	 0.695438 	  
 12.836426 	 2.849217 	 3.022844 	 0.947937 	 0.704875 	 0.693438 	  
 8.686360 	 3.352255 	 5.765975 	 0.945063 	 0.706875 	 0.695500 	  
 2.759939 	 3.452863 	 4.288300 	 0.946438 	 0.705187 	 0.693312 	  
 3.215818 	 2.308450 	 4.453359 	 0.946625 	 0.707250 	 0.695250 	  
 9.873216 	 1.692228 	 2.779185 	 0.945688 	 0.705500 	 0.693375 	  
 14.549901 	 2.383906 	 1.670928 	 0.948063 	 0.707625 	 0.694188 	  
 14.439861 	 4.710458 	 2.810625 	 0.945250 	 0.705313 	 0.695125 	  
 12.089729 	 6.357909 	 0.287573 	 0.947813 	 0.707438 	 0.693625 	  
 7.562384 	 7.452018 	 0.028194 	 0.945250 	 0.705625 	 0.695313 	  
 3.357297 	 7.602929 	 1.930307 	 0.948125 	 0.706375 	 0.693375 	  
 6.689926 	 6.848372 	 2.771325 	 0.944937 	 0.707375 	 0.695562 	  
 15.540258 	 5.854871 	 -0.223326 	 0.948063 	 0.705625 	 0.693312 	  
 21.631738 	 6.961555 	 0.413332 	 0.945063 	 0.707313 	 0.695438 	  
 20.539202 	 8.043088 	 4.249000 	 0.946313 	 0.705125 	 0.693375 	  
 15.925396 	 8.961133 	 4.579119 	 0.946937 	 0.707438 	 0.695125 	  
 11.366611 	 8.797645 	 4.225420 	 0.945562 	 0.705313 	 0.693375 	  
 6.823546 	 8.005360 	 0.680571 	 0.947813 	 0.707375 	 0.694250 	  
 6.540587 	 8.596430 	 2.897084 	 0.945188 	 0.705625 	 0.694750 	  
 11.932529 	 8.017936 	 6.520532 	 0.947937 	 0.707688 	 0.693562 	  
 16.648514 	 6.295029 	 4.311880 	 0.945250 	 0.705813 	 0.695438 	  
 15.076519 	 5.653655 	 1.631628 	 0.948063 	 0.706625 	 0.693438 	  
 8.882859 	 6.295029 	 0.609832 	 0.945313 	 0.706688 	 0.695375 	  
 3.192238 	 5.766839 	 1.733808 	 0.948000 	 0.705688 	 0.693375 	  
 1.588803 	 4.899098 	 2.150387 	 0.945063 	 0.707438 	 0.695562 	  
 5.306571 	 5.188345 	 4.854218 	 0.946688 	 0.705250 	 0.693250 	  
 10.612054 	 4.836218 	 5.828855 	 0.946375 	 0.707250 	 0.695250 	  
 12.765687 	 5.200921 	 2.645565 	 0.945500 	 0.705250 	 0.693500 	  
 11.908949 	 7.552625 	 1.953887 	 0.947937 	 0.707375 	 0.694125 	  
 4.512713 	 9.916906 	 3.643782 	 0.945188 	 0.705187 	 0.694500 	  
 -3.669520 	 9.325836 	 3.085724 	 0.947813 	 0.707250 	 0.693688 	  
 -5.092176 	 8.080816 	 0.814191 	 0.945188 	 0.705250 	 0.695313 	  
 2.995738 	 7.602929 	 -0.710644 	 0.947937 	 0.705813 	 0.693312 	  
 10.446994 	 5.716535 	 2.842064 	 0.945063 	 0.707125 	 0.695438 	  
 11.382331 	 2.534818 	 3.447282 	 0.947188 	 0.705250 	 0.693312 	  
 9.409478 	 2.497090 	 3.871721 	 0.945500 	 0.707313 	 0.695500 	  
 6.509147 	 3.377407 	 4.162540 	 0.945750 	 0.705500 	 0.693438 	  
 3.883915 	 3.012704 	 2.449066 	 0.948000 	 0.707625 	 0.694250 	  
 4.945012 	 2.195267 	 2.732025 	 0.945313 	 0.705562 	 0.695188 	  
 10.989332 	 2.119811 	 5.231497 	 0.948000 	 0.707187 	 0.693750 	  
 14.274802 	 3.327103 	 6.591272 	 0.945188 	 0.705875 	 0.695375 	  
 13.583124 	 4.660155 	 3.085724 	 0.948188 	 0.705813 	 0.693375 	  
 11.099372 	 6.458517 	 5.451576 	 0.945125 	 0.707375 	 0.695625 	  
 7.350164 	 8.055664 	 3.164323 	 0.946813 	 0.705313 	 0.693375 	  
 4.041115 	 10.369640 	 1.325089 	 0.946063 	 0.707187 	 0.695438 	  
 3.655976 	 9.539627 	 2.779185 	 0.945688 	 0.705000 	 0.693375 	  
 9.291578 	 7.665809 	 3.337243 	 0.947875 	 0.707250 	 0.694438 	  
 14.880020 	 8.118543 	 6.111814 	 0.945375 	 0.704875 	 0.694438 	  
 16.145476 	 10.030089 	 10.788499 	 0.947937 	 0.707000 	 0.693750 	  
 13.363045 	 10.973286 	 7.738829 	 0.945250 	 0.705125 	 0.695438 	  
 12.278368 	 9.388715 	 6.504813 	 0.948125 	 0.705937 	 0.693375 	  
 11.767470 	 7.389138 	 4.634139 	 0.945125 	 0.706438 	 0.695375 	  
 12.993626 	 7.162771 	 7.133611 	 0.947875 	 0.705250 	 0.693375 	  
 15.666017 	 9.577355 	 3.856001 	 0.945250 	 0.706937 	 0.695375 	  
 16.624934 	 12.243458 	 6.206134 	 0.946750 	 0.705187 	 0.693375 	  
 13.779623 	 11.752996 	 6.237573 	 0.945813 	 0.707000 	 0.695500 	  
 7.633123 	 9.262956 	 6.842791 	 0.945937 	 0.705063 	 0.693188 	  
 3.813176 	 8.822797 	 8.988565 	 0.948000 	 0.707125 	 0.694312 	  
 3.294417 	 11.853603 	 6.992131 	 0.945250 	 0.705187 	 0.694562 	  
 7.169385 	 15.010169 	 5.726675 	 0.948063 	 0.707125 	 0.693688 	  
 9.181538 	 15.601239 	 6.929251 	 0.945250 	 0.704750 	 0.695375 	  
 10.069715 	 14.041820 	 5.192197 	 0.947937 	 0.705688 	 0.693438 	  
 8.199041 	 12.532705 	 5.710955 	 0.945125 	 0.705313 	 0.695438 	  
 3.978235 	 8.546126 	 3.360823 	 0.948063 	 0.705000 	 0.693312 	  
 1.219384 	 4.496667 	 2.472646 	 0.945000 	 0.706625 	 0.695562 	  
 2.532000 	 5.339256 	 -0.514145 	 0.947250 	 0.705187 	 0.693375 	  
 7.735303 	 8.998861 	 1.002830 	 0.945625 	 0.707000 	 0.695375 	  
 9.833916 	 9.828874 	 6.143254 	 0.945688 	 0.705000 	 0.693375 	  
 9.047919 	 7.602929 	 5.561616 	 0.947688 	 0.707063 	 0.694312 	  
 6.776386 	 5.854871 	 4.225420 	 0.945500 	 0.704937 	 0.693562 	  
 4.261194 	 5.615928 	 -4.082573 	 0.947875 	 0.707125 	 0.693937 	  
 1.164364 	 6.483669 	 -6.904304 	 0.945375 	 0.705438 	 0.695500 	  
 5.628830 	 6.508821 	 -4.868571 	 0.948250 	 0.705813 	 0.693375 	  
 14.801420 	 6.219574 	 -4.994330 	 0.945188 	 0.707063 	 0.695500 	  
 19.753204 	 3.993629 	 0.924231 	 0.947813 	 0.705438 	 0.693500 	  
 16.396995 	 1.780260 	 5.443716 	 0.945375 	 0.707063 	 0.695438 	  
 9.991116 	 0.560392 	 7.314390 	 0.946250 	 0.705438 	 0.693438 	  
 6.226188 	 1.855716 	 7.526609 	 0.946750 	 0.707250 	 0.695313 	  
 4.583453 	 2.610273 	 3.486582 	 0.945750 	 0.705063 	 0.693375 	  
 7.499504 	 2.069507 	 2.771325 	 0.948000 	 0.707063 	 0.694188 	  
 11.971829 	 2.547393 	 4.791338 	 0.945188 	 0.704937 	 0.695438 	  
 15.320178 	 3.264223 	 4.563399 	 0.948063 	 0.706625 	 0.693562 	  
 14.361262 	 4.081661 	 3.046424 	 0.945125 	 0.705000 	 0.695313 	  
 12.482728 	 6.131542 	 3.518022 	 0.948125 	 0.705625 	 0.693500 	  
 8.505580 	 8.030512 	 3.439422 	 0.945313 	 0.706750 	 0.695438 	  
 4.945012 	 6.345333 	 2.456926 	 0.948125 	 0.705250 	 0.693312 	  
 7.059345 	 3.339679 	 0.649132 	 0.945188 	 0.707438 	 0.695688 	  
 10.706373 	 0.434632 	 4.170400 	 0.946500 	 0.705375 	 0.693500 	  
 11.484511 	 -1.552369 	 0.594112 	 0.946625 	 0.707063 	 0.695438 	  
 8.576320 	 -0.345077 	 0.979250 	 0.945875 	 0.705375 	 0.693500 	  
 5.330151 	 1.629348 	 1.403689 	 0.947937 	 0.707375 	 0.694312 	  
 1.164364 	 2.446786 	 6.418353 	 0.945375 	 0.705125 	 0.694750 	  
 0.692766 	 2.710881 	 1.277929 	 0.947937 	 0.707250 	 0.693813 	  
 3.530217 	 3.125888 	 3.494442 	 0.945250 	 0.705187 	 0.695313 	  
 7.287284 	 3.239071 	 0.515512 	 0.948250 	 0.705875 	 0.693312 	  
 9.338738 	 5.527896 	 4.602699 	 0.945063 	 0.705813 	 0.695438 	  
 7.295144 	 7.929904 	 5.176477 	 0.947937 	 0.705438 	 0.693375 	  
 2.862119 	 9.539627 	 5.750255 	 0.945188 	 0.706875 	 0.695438 	  
 -1.295808 	 9.803722 	 6.316173 	 0.947438 	 0.704875 	 0.693375 	  
 0.323347 	 9.778570 	 1.718088 	 0.945250 	 0.706875 	 0.695438 	  
 6.084708 	 8.973709 	 1.277929 	 0.945937 	 0.704875 	 0.693188 	  
 11.138672 	 7.665809 	 1.309369 	 0.947813 	 0.706813 	 0.694375 	  
 11.445211 	 7.074739 	 5.215777 	 0.945125 	 0.705187 	 0.694937 	  
 10.156175 	 6.508821 	 0.853491 	 0.948000 	 0.707313 	 0.693750 	  
 6.666346 	 7.640657 	 -0.687064 	 0.945313 	 0.705187 	 0.695438 	  
 3.852476 	 9.313260 	 -1.370882 	 0.948063 	 0.706500 	 0.693562 	  
 5.958949 	 11.275109 	 0.067493 	 0.945375 	 0.706375 	 0.695438 	  
 11.728170 	 11.765572 	 1.537309 	 0.948188 	 0.705688 	 0.693438 	  
 17.701751 	 12.620737 	 3.942461 	 0.945188 	 0.707438 	 0.695688 	  
 19.053666 	 12.733921 	 5.105737 	 0.946813 	 0.705500 	 0.693500 	  
 15.783917 	 12.281186 	 4.280440 	 0.945750 	 0.707375 	 0.695500 	  
 8.214761 	 12.004515 	 4.091800 	 0.945750 	 0.705250 	 0.693500 	  
 4.614893 	 10.910406 	 2.260426 	 0.947937 	 0.707250 	 0.694188 	  
 9.684577 	 10.772071 	 3.738102 	 0.945375 	 0.705125 	 0.695063 	  
 15.901817 	 11.199653 	 5.255077 	 0.947813 	 0.707000 	 0.693813 	  
 17.293032 	 10.545704 	 4.131100 	 0.945188 	 0.705000 	 0.695375 	  
 15.343758 	 8.772493 	 2.409766 	 0.948063 	 0.706500 	 0.693500 	  
 10.446994 	 9.690538 	 1.466569 	 0.945125 	 0.705562 	 0.695625 	  
 5.117931 	 11.514052 	 2.354746 	 0.948125 	 0.705625 	 0.693438 	  
 5.227971 	 12.230882 	 1.175750 	 0.945313 	 0.707250 	 0.695562 	  
 12.215488 	 10.746919 	 5.207917 	 0.946875 	 0.705063 	 0.693500 	  
 20.012583 	 9.753418 	 4.744178 	 0.945438 	 0.706937 	 0.695625 	  
 22.056177 	 10.834951 	 6.937111 	 0.946250 	 0.705250 	 0.693250 	  
 18.943627 	 11.036166 	 7.652369 	 0.947000 	 0.707250 	 0.695125 	  
 10.745673 	 10.155849 	 5.585196 	 0.945562 	 0.705000 	 0.693438 	  
 5.400891 	 9.401291 	 6.213993 	 0.948063 	 0.707125 	 0.694063 	  
 5.102211 	 9.288108 	 9.090744 	 0.945188 	 0.704813 	 0.694688 	  
 8.230481 	 8.973709 	 6.489093 	 0.947875 	 0.706750 	 0.693625 	  
 11.091512 	 8.885677 	 8.108247 	 0.945375 	 0.705063 	 0.695375 	  
 11.853930 	 7.854448 	 3.738102 	 0.948000 	 0.706000 	 0.693438 	  
 10.297655 	 6.961555 	 0.153953 	 0.945000 	 0.705187 	 0.695562 	  
 3.946795 	 8.055664 	 1.686648 	 0.948063 	 0.705562 	 0.693375 	  
 -0.360471 	 10.897830 	 4.885658 	 0.944937 	 0.707063 	 0.695500 	  
 3.380877 	 11.061318 	 1.364389 	 0.947125 	 0.704875 	 0.693312 	  
 10.792833 	 8.445518 	 3.738102 	 0.945500 	 0.707063 	 0.695562 	  
 13.693164 	 5.364408 	 3.431562 	 0.946063 	 0.705063 	 0.693312 	  
 12.702807 	 3.025280 	 0.704151 	 0.947688 	 0.707313 	 0.694688 	  
 7.939662 	 1.692228 	 1.065710 	 0.945438 	 0.705313 	 0.694125 	  
 2.209741 	 -0.244469 	 0.688431 	 0.948063 	 0.707313 	 0.693750 	  
 -0.556970 	 -0.194166 	 1.623768 	 0.945250 	 0.705562 	 0.695625 	  
 4.221894 	 0.195689 	 -0.160446 	 0.948000 	 0.706438 	 0.693438 	  
 11.272292 	 1.365253 	 0.256133 	 0.945250 	 0.706375 	 0.695438 	  
 14.518461 	 2.786337 	 5.648075 	 0.948063 	 0.705562 	 0.693500 	  
 13.535964 	 4.232572 	 0.924231 	 0.945125 	 0.707438 	 0.695625 	  
 9.472357 	 4.685307 	 4.131100 	 0.946250 	 0.705375 	 0.693312 	  
 5.424470 	 3.641502 	 2.181827 	 0.947500 	 0.707187 	 0.695063 	  
 4.677773 	 2.409058 	 2.205406 	 0.945500 	 0.705500 	 0.693625 	  
 9.385898 	 2.685729 	 3.667362 	 0.948063 	 0.707438 	 0.694063 	  
 15.241579 	 4.559547 	 5.954614 	 0.945125 	 0.705250 	 0.695375 	  
 17.851090 	 6.282453 	 5.852435 	 0.948125 	 0.706313 	 0.693562 	  
 17.898250 	 7.401714 	 5.019277 	 0.945250 	 0.705813 	 0.695438 	  
 12.396268 	 7.049587 	 -0.168306 	 0.948125 	 0.705813 	 0.693438 	  
 5.809609 	 5.691383 	 0.326873 	 0.945063 	 0.707250 	 0.695500 	  
 4.465554 	 5.439864 	 1.914587 	 0.946875 	 0.705438 	 0.693375 	  
 10.124735 	 6.395637 	 4.390479 	 0.945937 	 0.707375 	 0.695500 	  
 12.136889 	 5.880023 	 7.306530 	 0.945813 	 0.705063 	 0.693500 	  
 9.495937 	 3.176191 	 8.068947 	 0.947875 	 0.707500 	 0.694438 	  
 3.962515 	 1.692228 	 9.365843 	 0.945375 	 0.705375 	 0.694188 	  
 -1.342968 	 2.471938 	 8.532686 	 0.947937 	 0.707438 	 0.693875 	  
 -3.418001 	 4.182268 	 5.325816 	 0.945125 	 0.705187 	 0.695438 	  
 1.942502 	 5.490168 	 7.730969 	 0.948188 	 0.705937 	 0.693438 	  
 10.187615 	 8.319759 	 5.742395 	 0.944937 	 0.706562 	 0.695500 	  
 13.748183 	 10.369640 	 4.917098 	 0.947937 	 0.705250 	 0.693438 	  
 12.372688 	 9.665386 	 4.964258 	 0.945188 	 0.706875 	 0.695438 	  
 7.240125 	 7.426866 	 5.286516 	 0.946688 	 0.704813 	 0.693438 	  
 1.195804 	 7.804144 	 4.814918 	 0.945625 	 0.707187 	 0.695500 	  
 -1.555187 	 9.904330 	 5.561616 	 0.945813 	 0.705063 	 0.693250 	  
 3.333717 	 11.086470 	 4.233280 	 0.947750 	 0.707063 	 0.694125 	  
 10.085435 	 11.224805 	 3.793121 	 0.945125 	 0.705187 	 0.695438 	  
 12.050429 	 10.897830 	 2.582685 	 0.947937 	 0.706875 	 0.693500 	  
 10.022556 	 11.954211 	 5.451576 	 0.945188 	 0.705313 	 0.695500 	  
 7.098645 	 12.658465 	 4.799198 	 0.948063 	 0.705937 	 0.693500 	  
 3.915355 	 12.155426 	 3.439422 	 0.945375 	 0.707375 	 0.695500 	  
 1.549503 	 10.143273 	 2.464786 	 0.947813 	 0.705375 	 0.693438 	  
 4.072555 	 9.250380 	 6.520532 	 0.945375 	 0.707250 	 0.695625 	  
 11.288011 	 9.024013 	 5.648075 	 0.946188 	 0.705250 	 0.693375 	  
 17.300892 	 7.929904 	 2.394046 	 0.947688 	 0.707250 	 0.694562 	  
 17.175132 	 5.515320 	 4.201840 	 0.945250 	 0.705500 	 0.694000 	  
 12.553467 	 2.597697 	 4.531959 	 0.948125 	 0.707438 	 0.694000 	  
 8.623480 	 2.245570 	 3.211483 	 0.945313 	 0.705313 	 0.695313 	  
 10.454854 	 5.578200 	 6.143254 	 0.947937 	 0.706562 	 0.693625 	  
 17.159412 	 9.288108 	 3.219343 	 0.945313 	 0.705625 	 0.695500 	  
 21.639598 	 8.659310 	 1.034270 	 0.948125 	 0.705875 	 0.693438 	  
 20.437022 	 6.483669 	 3.187903 	 0.945063 	 0.707063 	 0.695625 	  
 14.518461 	 4.861370 	 2.339026 	 0.947813 	 0.705375 	 0.693438 	  
 7.444484 	 4.622427 	 2.409766 	 0.945188 	 0.707250 	 0.695562 	  
 0.480546 	 6.206998 	 0.609832 	 0.946313 	 0.705313 	 0.693562 	  
 0.842105 	 9.476747 	 3.109304 	 0.947562 	 0.707375 	 0.694688 	  
 6.579887 	 11.174502 	 3.235063 	 0.945438 	 0.705313 	 0.694000 	  
 10.494154 	 11.677540 	 5.750255 	 0.947875 	 0.707438 	 0.693937 	  
 9.566677 	 12.608161 	 2.700585 	 0.945188 	 0.705438 	 0.695375 	  
 6.776386 	 10.897830 	 -0.333365 	 0.948063 	 0.706438 	 0.693500 	  
 4.159015 	 6.860948 	 -0.073986 	 0.945000 	 0.705937 	 0.695500 	  
 0.323347 	 3.830141 	 -1.205822 	 0.948063 	 0.705750 	 0.693375 	  
 -0.046072 	 4.660155 	 3.494442 	 0.945125 	 0.707562 	 0.695375 	  
 5.220111 	 5.842295 	 5.034997 	 0.946688 	 0.705313 	 0.693375 	  
 9.519517 	 6.131542 	 5.262937 	 0.945688 	 0.707625 	 0.695500 	  
 10.211195 	 6.144118 	 2.881364 	 0.946063 	 0.705625 	 0.693312 	  
 9.621697 	 5.490168 	 1.081430 	 0.947625 	 0.707438 	 0.694562 	  
 4.363374 	 3.100736 	 5.891735 	 0.945188 	 0.705500 	 0.693875 	  
 -0.195411 	 0.962823 	 5.317956 	 0.947937 	 0.707375 	 0.693813 	  
 2.532000 	 2.798913 	 5.137177 	 0.945188 	 0.705250 	 0.695313 	  
 9.826056 	 6.156694 	 -0.451265 	 0.948063 	 0.706313 	 0.693438 	  
 14.628501 	 8.986285 	 1.332949 	 0.945250 	 0.706375 	 0.695438 	  
 15.060799 	 8.269455 	 1.254350 	 0.948188 	 0.705875 	 0.693312 	  
 12.600627 	 4.836218 	 3.117164 	 0.945000 	 0.707500 	 0.695688 	  
 6.674206 	 2.409058 	 1.678788 	 0.946562 	 0.705562 	 0.693438 	  
 5.526650 	 2.283298 	 -1.598821 	 0.946937 	 0.707562 	 0.695063 	  
 13.708884 	 2.698305 	 -1.976100 	 0.945438 	 0.705625 	 0.693750 	  
 24.822888 	 4.031357 	 -3.320156 	 0.947937 	 0.708063 	 0.694063 	  
 26.575662 	 4.672731 	 -3.021477 	 0.945375 	 0.705750 	 0.695313 	  
 18.189069 	 3.088160 	 -2.557738 	 0.947937 	 0.706750 	 0.693625 	  
 8.379821 	 0.912519 	 0.963530 	 0.945188 	 0.706625 	 0.695500 	  
 3.726716 	 -0.445685 	 0.059633 	 0.948125 	 0.705813 	 0.693375 	  
 8.434841 	 1.340101 	 7.951048 	 0.945063 	 0.707313 	 0.695625 	  
 17.434512 	 3.704382 	 4.469079 	 0.946500 	 0.705688 	 0.693438 	  
 22.582795 	 5.314105 	 3.769541 	 0.946188 	 0.707562 	 0.695500 	  
 19.273746 	 6.722612 	 4.972118 	 0.945875 	 0.705688 	 0.693438 	  
 11.798910 	 6.974131 	 6.080374 	 0.947813 	 0.707750 	 0.694250 	  
 5.086492 	 6.722612 	 6.999991 	 0.945500 	 0.705750 	 0.694625 	  
 1.305844 	 7.980208 	 6.709172 	 0.948000 	 0.707375 	 0.693688 	  
 2.021101 	 11.413445 	 7.259370 	 0.945125 	 0.705813 	 0.695500 	  
 8.089002 	 12.771648 	 8.579846 	 0.948188 	 0.706375 	 0.693312 	  
 13.740324 	 12.608161 	 12.234734 	 0.945188 	 0.706688 	 0.695438 	  
 14.243362 	 10.960710 	 9.861022 	 0.947937 	 0.705875 	 0.693500 	  
 10.926453 	 10.130697 	 7.353690 	 0.945188 	 0.707500 	 0.695438 	  
 5.110071 	 11.011014 	 7.455869 	 0.947750 	 0.705438 	 0.693375 	  
 1.085764 	 12.369218 	 7.047151 	 0.945000 	 0.707562 	 0.695562 	  
 3.294417 	 12.746496 	 5.215777 	 0.946500 	 0.705313 	 0.693312 	  
 8.293361 	 12.155426 	 7.872448 	 0.947000 	 0.707250 	 0.695125 	  
 10.258355 	 10.973286 	 6.434073 	 0.945438 	 0.705500 	 0.693500 	  
 10.454854 	 9.413867 	 10.332620 	 0.947875 	 0.707500 	 0.694438 	  
 7.829623 	 7.326258 	 7.809568 	 0.945438 	 0.705187 	 0.693625 	  
 2.437680 	 3.704382 	 7.911748 	 0.947937 	 0.707125 	 0.694063 	  
 -1.728106 	 3.402559 	 7.282950 	 0.945313 	 0.705375 	 0.694813 	  
 2.728499 	 5.615928 	 -22.765733 	 0.948125 	 0.707438 	 0.693625 	  
 7.892502 	 5.590776 	 -28.307015 	 0.945313 	 0.706250 	 0.695562 	  
 9.283718 	 4.308028 	 -16.454173 	 0.947438 	 0.705688 	 0.693438 	  
 8.576320 	 5.075161 	 -1.622401 	 0.946625 	 0.707438 	 0.695375 	  
 6.524867 	 7.024435 	 -1.606681 	 0.945500 	 0.705500 	 0.693688 	  
 4.127575 	 8.030512 	 3.573042 	 0.947937 	 0.707562 	 0.694063 	  
 4.135435 	 6.345333 	 4.311880 	 0.945313 	 0.705625 	 0.695375 	  
 10.258355 	 3.251647 	 1.175750 	 0.947937 	 0.707250 	 0.693562 	  
 16.310535 	 2.346178 	 4.822778 	 0.945188 	 0.706125 	 0.695562 	  
 18.542768 	 3.327103 	 6.386913 	 0.948250 	 0.705937 	 0.693438 	  
 16.970773 	 4.081661 	 2.134667 	 0.945250 	 0.707438 	 0.695562 	  
 12.954326 	 3.465439 	 4.563399 	 0.946875 	 0.705500 	 0.693500 	  
 7.986822 	 2.949824 	 8.218287 	 0.945750 	 0.707625 	 0.695438 	  
 7.790323 	 4.383484 	 7.337970 	 0.945937 	 0.705313 	 0.693375 	  
 13.795343 	 7.653233 	 7.212210 	 0.947813 	 0.707313 	 0.694688 	  
 17.159412 	 10.155849 	 5.703095 	 0.945500 	 0.705250 	 0.693625 	  
 15.343758 	 10.545704 	 6.151114 	 0.947875 	 0.707438 	 0.694000 	  
 10.926453 	 10.055241 	 6.968551 	 0.945125 	 0.705438 	 0.695500 	  
 6.823546 	 10.030089 	 9.806002 	 0.948125 	 0.706750 	 0.693438 	  
 3.993955 	 10.608583 	 9.648802 	 0.945188 	 0.705875 	 0.695438 	  
 4.151155 	 10.331912 	 7.055011 	 0.948063 	 0.706250 	 0.693562 	  
 7.413044 	 11.011014 	 7.872448 	 0.945125 	 0.707438 	 0.695562 	  
 8.073282 	 11.275109 	 6.992131 	 0.948063 	 0.705500 	 0.693375 	  
 6.163308 	 10.948134 	 5.121457 	 0.945063 	 0.707187 	 0.695688 	  
 1.415883 	 10.344488 	 1.749528 	 0.946438 	 0.705125 	 0.693438 	  
 -3.119322 	 10.294184 	 1.222910 	 0.946750 	 0.707000 	 0.695250 	  
 -4.895676 	 11.187078 	 -1.677421 	 0.945500 	 0.705187 	 0.693500 	  
 0.865685 	 11.111622 	 -1.119363 	 0.947875 	 0.707000 	 0.694000 	  
 6.902146 	 10.734343 	 -2.479138 	 0.945313 	 0.704937 	 0.695375 	  
 10.855713 	 9.589931 	 4.343320 	 0.947937 	 0.705750 	 0.693438 	  
 10.368394 	 7.502321 	 6.764192 	 0.945063 	 0.705500 	 0.695500 	  
 5.345871 	 6.056086 	 7.157190 	 0.948125 	 0.705500 	 0.693312 	  
 0.205447 	 6.886099 	 7.416570 	 0.945000 	 0.707000 	 0.695625 	  
 0.653466 	 8.093392 	 4.461219 	 0.947000 	 0.705187 	 0.693438 	  
 6.108288 	 8.822797 	 6.017494 	 0.946125 	 0.707250 	 0.695438 	  
 9.943956 	 7.502321 	 3.753821 	 0.945688 	 0.705562 	 0.693438 	  
 11.908949 	 5.364408 	 3.808841 	 0.947937 	 0.707750 	 0.694438 	  
 11.217272 	 4.031357 	 4.013201 	 0.945438 	 0.705750 	 0.694875 	  
 6.572027 	 3.540894 	 5.270797 	 0.948125 	 0.707875 	 0.693625 	  
 0.378367 	 3.616350 	 3.942461 	 0.945188 	 0.705688 	 0.695625 	  
 1.180084 	 2.534818 	 4.201840 	 0.948188 	 0.706125 	 0.693562 	  
 9.323018 	 1.239494 	 3.628062 	 0.945375 	 0.707438 	 0.695562 	  
 17.583851 	 0.673576 	 3.541602 	 0.947688 	 0.705625 	 0.693500 	  
 20.688541 	 1.893444 	 5.820995 	 0.945375 	 0.707313 	 0.695688 	  
 18.699967 	 2.019203 	 5.561616 	 0.946500 	 0.705375 	 0.693438 	  
 15.697457 	 1.541317 	 6.858511 	 0.947063 	 0.707250 	 0.695375 	  
 12.176189 	 2.723457 	 6.889951 	 0.945813 	 0.705438 	 0.693438 	  
 12.985766 	 7.804144 	 6.638432 	 0.948063 	 0.707438 	 0.694375 	  
 17.017933 	 13.299839 	 6.520532 	 0.945313 	 0.705313 	 0.694562 	  
 19.627444 	 15.840182 	 2.912804 	 0.947937 	 0.707375 	 0.693875 	  
 18.055450 	 15.223960 	 -2.070420 	 0.945500 	 0.705187 	 0.695438 	  
 11.665290 	 12.633313 	 -1.559521 	 0.948188 	 0.706187 	 0.693562 	  
 4.897852 	 10.344488 	 -0.411965 	 0.945313 	 0.705937 	 0.695625 	  
 2.720639 	 7.917328 	 3.698802 	 0.948375 	 0.705625 	 0.693438 	  
 8.709940 	 7.640657 	 6.206134 	 0.945250 	 0.707187 	 0.695625 	  
 16.216215 	 9.552203 	 4.759898 	 0.946625 	 0.705375 	 0.693438 	  
 18.220509 	 10.596007 	 2.456926 	 0.945813 	 0.707313 	 0.695500 	  
 15.162979 	 10.269032 	 4.744178 	 0.946250 	 0.705250 	 0.693375 	  
 10.792833 	 9.879178 	 2.315446 	 0.946937 	 0.707250 	 0.695250 	  
 5.243691 	 8.709614 	 0.421192 	 0.945625 	 0.705187 	 0.693438 	  
 3.978235 	 6.697460 	 2.504085 	 0.948063 	 0.706875 	 0.694000 	  
 8.419121 	 4.131964 	 3.714522 	 0.945188 	 0.705187 	 0.695438 	  
 11.578831 	 2.333602 	 3.400123 	 0.948000 	 0.706313 	 0.693562 	  
 10.376254 	 3.968477 	 -0.710644 	 0.945250 	 0.705562 	 0.695438 	  
 7.075065 	 4.873946 	 -0.372665 	 0.948000 	 0.705375 	 0.693500 	  
 3.019318 	 3.729534 	 -1.457342 	 0.945000 	 0.707125 	 0.695562 	  
 -1.107168 	 2.899520 	 3.832421 	 0.946813 	 0.705125 	 0.693375 	  
 0.842105 	 2.761185 	 2.897084 	 0.946625 	 0.707438 	 0.695438 	  
 8.945739 	 4.295452 	 3.062144 	 0.945625 	 0.705688 	 0.693625 	  
 16.483455 	 6.194422 	 1.843848 	 0.948125 	 0.707813 	 0.694188 	  
 18.951487 	 7.263378 	 2.614125 	 0.945375 	 0.705562 	 0.695250 	  
 17.135833 	 8.030512 	 1.780968 	 0.948000 	 0.707375 	 0.693688 	  
 12.011129 	 8.948557 	 1.718088 	 0.945375 	 0.705688 	 0.695562 	  
 8.371961 	 8.533550 	 2.339026 	 0.948313 	 0.706313 	 0.693562 	  
 11.657430 	 7.967632 	 2.708445 	 0.945125 	 0.707375 	 0.695688 	  
 17.041513 	 6.496245 	 5.058577 	 0.947937 	 0.705562 	 0.693438 	  
 16.601354 	 6.219574 	 4.005341 	 0.945375 	 0.707438 	 0.695625 	  
 13.787483 	 7.917328 	 2.912804 	 0.946125 	 0.705375 	 0.693500 	  
 12.922886 	 10.394792 	 2.637705 	 0.947813 	 0.707500 	 0.694813 	  
 10.006836 	 10.042665 	 6.937111 	 0.945500 	 0.705250 	 0.693813 	  
 4.772093 	 7.225650 	 6.276873 	 0.947875 	 0.707375 	 0.694063 	  
 4.772093 	 8.181423 	 4.516239 	 0.945438 	 0.705375 	 0.694937 	  
 10.761393 	 9.413867 	 0.460492 	 0.948063 	 0.707250 	 0.693875 	  
 14.345542 	 7.728689 	 3.738102 	 0.945313 	 0.705625 	 0.695562 	  
 14.086162 	 5.741687 	 6.151114 	 0.948188 	 0.706063 	 0.693500 	  
 12.443428 	 6.936403 	 3.950321 	 0.945250 	 0.706688 	 0.695500 	  
 7.703863 	 8.546126 	 3.510162 	 0.948188 	 0.705500 	 0.693562 	  
 3.475197 	 9.011437 	 3.054284 	 0.945250 	 0.707688 	 0.695688 	  
 5.015752 	 7.401714 	 4.421919 	 0.947313 	 0.705313 	 0.693500 	  
 8.159742 	 6.370485 	 4.162540 	 0.945688 	 0.707313 	 0.695562 	  
 8.717800 	 7.502321 	 7.652369 	 0.946063 	 0.705375 	 0.693500 	  
 7.861063 	 9.426443 	 7.597349 	 0.947750 	 0.707000 	 0.694750 	  
 2.759939 	 11.011014 	 2.834204 	 0.945500 	 0.705250 	 0.693562 	  
 -5.225795 	 10.294184 	 1.112870 	 0.948000 	 0.707125 	 0.694063 	  
 -7.041449 	 8.055664 	 2.669145 	 0.945313 	 0.705187 	 0.695250 	  
 0.732066 	 6.647156 	 5.498736 	 0.948000 	 0.705937 	 0.693500 	  
 6.870706 	 6.936403 	 4.586979 	 0.945250 	 0.705500 	 0.695438 	  
 8.348381 	 5.112889 	 4.508379 	 0.948188 	 0.705750 	 0.693312 	  
 6.689926 	 2.987552 	 1.631628 	 0.945063 	 0.706438 	 0.695500 	  
 1.950362 	 3.679230 	 3.297943 	 0.948000 	 0.705500 	 0.693438 	  
 -2.757763 	 6.106390 	 6.331893 	 0.945313 	 0.707438 	 0.695562 	  
 -0.195411 	 6.056086 	 3.879581 	 0.946625 	 0.705500 	 0.693500 	  
 9.983256 	 5.578200 	 1.293649 	 0.947375 	 0.707688 	 0.695125 	  
 15.540258 	 5.288953 	 2.551245 	 0.945625 	 0.705500 	 0.693688 	  
 16.727114 	 4.559547 	 2.504085 	 0.948063 	 0.707438 	 0.694000 	  
 15.052939 	 3.478014 	 0.484072 	 0.945313 	 0.705438 	 0.695562 	  
 9.000759 	 2.031779 	 -0.349085 	 0.948250 	 0.706688 	 0.693625 	  
 2.649899 	 1.579045 	 -1.292282 	 0.945188 	 0.706063 	 0.695500 	  
 4.182594 	 2.308450 	 -2.730658 	 0.948250 	 0.705937 	 0.693562 	  
 13.543824 	 2.635425 	 -1.072203 	 0.945250 	 0.707625 	 0.695562 	  
 20.020443 	 1.604197 	 1.136450 	 0.946813 	 0.705438 	 0.693375 	  
 18.244089 	 2.635425 	 3.753821 	 0.946313 	 0.707375 	 0.695625 	  
 13.245145 	 4.685307 	 3.062144 	 0.945875 	 0.705250 	 0.693438 	  
 8.529160 	 4.081661 	 5.640215 	 0.948188 	 0.707125 	 0.694250 	  
 5.754589 	 2.899520 	 3.297943 	 0.945313 	 0.705250 	 0.694438 	  
 9.275858 	 3.063008 	 2.244706 	 0.947937 	 0.707375 	 0.693750 	  
 14.274802 	 4.270300 	 3.714522 	 0.945500 	 0.705125 	 0.695500 	  
 14.754260 	 5.641079 	 1.796688 	 0.948250 	 0.706000 	 0.693562 	  
 11.468791 	 7.791569 	 0.759171 	 0.945063 	 0.706688 	 0.695688 	  
 8.474141 	 7.187922 	 4.563399 	 0.948313 	 0.705625 	 0.693500 	  
 6.367667 	 5.892599 	 7.510889 	 0.945250 	 0.707313 	 0.695562 	  
 7.413044 	 6.986707 	 5.600915 	 0.946562 	 0.705375 	 0.693375 	  
 14.251222 	 8.407791 	 6.976411 	 0.946562 	 0.707500 	 0.695500 	  
 16.821434 	 6.898675 	 5.891735 	 0.945937 	 0.705250 	 0.693438 	  
 14.919320 	 6.030934 	 5.121457 	 0.947937 	 0.707688 	 0.694500 	  
 9.543097 	 9.979785 	 4.484799 	 0.945375 	 0.705562 	 0.694500 	  
 2.893559 	 12.155426 	 4.893518 	 0.948063 	 0.707313 	 0.693688 	  
 -3.182202 	 11.463749 	 5.545896 	 0.945188 	 0.705187 	 0.695562 	  
 -3.307961 	 9.765994 	 4.610559 	 0.948125 	 0.706125 	 0.693438 	  
 3.640256 	 9.967209 	 7.495169 	 0.945250 	 0.705937 	 0.695500 	  
 8.434841 	 9.690538 	 5.695235 	 0.948000 	 0.705375 	 0.693438 	  
 9.315158 	 7.389138 	 5.750255 	 0.945125 	 0.707187 	 0.695625 	  
 8.128302 	 5.930327 	 6.622712 	 0.947000 	 0.705187 	 0.693250 	  
 6.509147 	 7.577777 	 3.934601 	 0.946188 	 0.707125 	 0.695562 	  
 4.064695 	 9.137196 	 3.431562 	 0.945750 	 0.705063 	 0.693438 	  
 5.856769 	 8.294607 	 2.849924 	 0.948125 	 0.707187 	 0.694250 	  
 10.226915 	 6.722612 	 4.744178 	 0.945375 	 0.705187 	 0.695188 	  
 12.954326 	 5.376984 	 4.547679 	 0.948063 	 0.707250 	 0.693688 	  
 13.197985 	 4.546971 	 3.863861 	 0.945500 	 0.705750 	 0.695500 	  
 13.323745 	 3.603774 	 3.706662 	 0.948250 	 0.706187 	 0.693562 	  
 10.800693 	 3.314527 	 5.522316 	 0.945250 	 0.707313 	 0.695625 	  
 6.705646 	 2.761185 	 3.832421 	 0.947500 	 0.705500 	 0.693500 	  
 9.071499 	 3.314527 	 3.502302 	 0.945750 	 0.707375 	 0.695625 	  
 15.909676 	 4.559547 	 5.616635 	 0.946063 	 0.705562 	 0.693500 	  
 21.466678 	 6.030934 	 4.390479 	 0.947875 	 0.707562 	 0.694625 	  
 20.397722 	 5.980630 	 3.494442 	 0.945500 	 0.705313 	 0.694000 	  
 15.351618 	 5.452440 	 1.851708 	 0.948000 	 0.707250 	 0.694000 	  
 8.482001 	 5.276377 	 2.221126 	 0.945438 	 0.705375 	 0.695500 	  
 6.155448 	 4.069085 	 5.231497 	 0.948188 	 0.706313 	 0.693438 	  
 12.199768 	 4.471515 	 5.160757 	 0.945125 	 0.705688 	 0.695562 	  
 17.348052 	 5.641079 	 5.160757 	 0.948250 	 0.706063 	 0.693500 	  
 16.562054 	 7.137619 	 3.620202 	 0.945313 	 0.707375 	 0.695562 	  
 11.311591 	 6.206998 	 2.865644 	 0.947750 	 0.705250 	 0.693500 	  
 5.510930 	 4.999706 	 1.608048 	 0.945250 	 0.707438 	 0.695562 	  
 0.339067 	 3.918173 	 -0.097566 	 0.946438 	 0.705313 	 0.693312 	  
 1.266544 	 4.257724 	 0.649132 	 0.947313 	 0.707313 	 0.695125 	  
 7.090785 	 5.779415 	 0.586252 	 0.945500 	 0.705250 	 0.693813 	  
 11.767470 	 6.471093 	 3.125023 	 0.948125 	 0.707250 	 0.693875 	  
 12.215488 	 7.112467 	 3.132883 	 0.945313 	 0.705063 	 0.695313 	  
 9.433057 	 7.804144 	 1.961747 	 0.948000 	 0.706750 	 0.693500 	  
 2.932859 	 8.961133 	 -0.294065 	 0.945188 	 0.705313 	 0.695438 	  
 -4.801356 	 9.426443 	 2.504085 	 0.948125 	 0.705375 	 0.693438 	  
 -4.156839 	 10.155849 	 2.401906 	 0.945000 	 0.706937 	 0.695625 	  
 2.390520 	 9.690538 	 3.329383 	 0.946937 	 0.705000 	 0.693375 	  
 6.619187 	 9.024013 	 4.697018 	 0.945688 	 0.706875 	 0.695562 	  
 6.925726 	 10.684039 	 4.343320 	 0.945813 	 0.705000 	 0.693375 	  
 4.834972 	 12.658465 	 4.327600 	 0.948000 	 0.706813 	 0.694375 	  
 -2.388344 	 13.563934 	 1.930307 	 0.945313 	 0.705313 	 0.694875 	  
 -7.308688 	 13.689693 	 2.566965 	 0.948000 	 0.707250 	 0.693625 	  
 -2.097525 	 14.922137 	 6.426213 	 0.945375 	 0.705688 	 0.695500 	  
 6.454127 	 13.991516 	 4.964258 	 0.948250 	 0.706125 	 0.693500 	  
 9.307298 	 12.633313 	 7.015711 	 0.945125 	 0.707125 	 0.695625 	  
 11.437351 	 11.526628 	 9.994641 	 0.948000 	 0.705375 	 0.693375 	  
 15.383058 	 11.853603 	 6.724892 	 0.945250 	 0.707375 	 0.695625 	  
 12.577047 	 12.620737 	 7.361550 	 0.946688 	 0.705562 	 0.693438 	  
 7.554524 	 11.073894 	 0.759171 	 0.946562 	 0.707750 	 0.695500 	  
 9.425197 	 7.967632 	 -3.351596 	 0.945875 	 0.705500 	 0.693438 	  
 13.708884 	 5.527896 	 -3.296576 	 0.948000 	 0.707562 	 0.694375 	  
 14.573481 	 4.194844 	 1.215050 	 0.945375 	 0.705562 	 0.695313 	  
 12.286228 	 2.509666 	 -0.270486 	 0.948188 	 0.706625 	 0.693438 	  
 6.249768 	 1.088582 	 4.665579 	 0.945188 	 0.706250 	 0.695625 	  
 -0.093232 	 0.396904 	 4.736318 	 0.948063 	 0.705750 	 0.693438 	  
 2.076121 	 3.025280 	 4.759898 	 0.945375 	 0.707187 	 0.695562 	  
 11.311591 	 5.829719 	 4.178260 	 0.947500 	 0.705375 	 0.693438 	  
 18.754987 	 6.936403 	 5.310096 	 0.945250 	 0.707500 	 0.695625 	  
 18.574208 	 6.785492 	 6.284733 	 0.946688 	 0.705500 	 0.693312 	  
 13.512384 	 7.326258 	 6.103954 	 0.946625 	 0.707562 	 0.695313 	  
 6.296928 	 8.005360 	 3.973901 	 0.945562 	 0.705625 	 0.693500 	  
 2.752079 	 7.590353 	 1.985327 	 0.948188 	 0.707562 	 0.694312 	  
 6.289068 	 9.325836 	 2.307586 	 0.945313 	 0.705313 	 0.694750 	  
 14.211922 	 10.545704 	 4.013201 	 0.947937 	 0.707313 	 0.693688 	  
 18.306969 	 8.898253 	 8.139687 	 0.945375 	 0.705250 	 0.695375 	  
 17.426652 	 6.785492 	 7.558049 	 0.948000 	 0.706250 	 0.693375 	  
 14.652081 	 7.841872 	 2.889224 	 0.945063 	 0.706375 	 0.695562 	  
 8.222621 	 9.149772 	 -1.284422 	 0.948125 	 0.705562 	 0.693375 	  
 2.547720 	 9.489323 	 1.089290 	 0.945188 	 0.707187 	 0.695438 	  
 4.221894 	 10.004937 	 1.977467 	 0.946562 	 0.705562 	 0.693500 	  
 11.122952 	 10.445096 	 7.880308 	 0.946375 	 0.707250 	 0.695375 	  
 15.909676 	 9.954634 	 2.920664 	 0.945688 	 0.705063 	 0.693375 	  
 16.459875 	 9.652810 	 4.586979 	 0.947937 	 0.707313 	 0.694438 	  
 12.624207 	 9.476747 	 3.950321 	 0.945375 	 0.705438 	 0.694500 	  
 6.053268 	 6.911251 	 3.463002 	 0.948125 	 0.707500 	 0.693750 	  
 2.414100 	 4.597275 	 3.588762 	 0.945188 	 0.705625 	 0.695562 	  
 8.041842 	 2.132387 	 1.183610 	 0.948250 	 0.706125 	 0.693500 	  
 15.500958 	 1.164038 	 4.948538 	 0.945250 	 0.706937 	 0.695562 	  
 17.017933 	 1.729956 	 2.991404 	 0.948250 	 0.705937 	 0.693625 	  
 14.793560 	 3.867869 	 1.993187 	 0.945375 	 0.707750 	 0.695625 	  
 11.468791 	 4.723034 	 2.268286 	 0.946562 	 0.705625 	 0.693375 	  
 7.004325 	 4.773338 	 3.580902 	 0.947188 	 0.707625 	 0.695188 	  
 4.567733 	 6.332757 	 4.311880 	 0.945500 	 0.705750 	 0.693813 	  
 9.323018 	 7.338834 	 7.220070 	 0.948125 	 0.707438 	 0.694063 	  
 14.628501 	 6.735188 	 5.294376 	 0.945313 	 0.705562 	 0.695000 	  
 15.744617 	 5.666231 	 6.331893 	 0.948000 	 0.707688 	 0.694000 	  
 13.457364 	 4.006205 	 8.084667 	 0.945375 	 0.705500 	 0.695375 	  
 8.151882 	 1.780260 	 5.160757 	 0.948000 	 0.706562 	 0.693625 	  
 4.253334 	 2.534818 	 4.767758 	 0.945250 	 0.705813 	 0.695500 	  
 5.683850 	 5.905175 	 -0.498425 	 0.948250 	 0.706000 	 0.693312 	  
 10.879293 	 8.005360 	 -1.001463 	 0.945188 	 0.707313 	 0.695438 	  
 15.029359 	 8.495822 	 -4.530592 	 0.948000 	 0.705688 	 0.693500 	  
 14.604921 	 9.011437 	 -3.996113 	 0.945438 	 0.707500 	 0.695625 	  
 10.360534 	 8.797645 	 -1.323722 	 0.946250 	 0.705562 	 0.693312 	  
 4.929292 	 9.602507 	 -1.999680 	 0.947750 	 0.707500 	 0.694750 	  
 -1.256508 	 11.224805 	 -0.899283 	 0.945500 	 0.705625 	 0.693875 	  
 -2.946402 	 11.589508 	 -0.105426 	 0.948063 	 0.707438 	 0.693937 	  
 0.889265 	 10.960710 	 4.728458 	 0.945250 	 0.705313 	 0.695438 	  
 5.943229 	 9.439019 	 9.405143 	 0.948125 	 0.706500 	 0.693500 	  
 7.271564 	 8.495822 	 8.839225 	 0.945188 	 0.705500 	 0.695313 	  
 3.805316 	 7.741265 	 3.604482 	 0.948063 	 0.705562 	 0.693500 	  
 0.559146 	 7.628081 	 3.022844 	 0.945125 	 0.707313 	 0.695500 	  
 -0.431211 	 6.684884 	 -0.207606 	 0.947500 	 0.705438 	 0.693250 	  
 3.545937 	 6.747764 	 -1.135083 	 0.945375 	 0.707063 	 0.695500 	  
 7.743163 	 8.445518 	 -4.129733 	 0.946188 	 0.705375 	 0.693312 	  
 9.865356 	 8.910829 	 -2.518438 	 0.947937 	 0.707375 	 0.694438 	  
 9.275858 	 5.993206 	 -1.952520 	 0.945313 	 0.705562 	 0.694375 	  
 6.422687 	 2.421634 	 -0.655624 	 0.948000 	 0.707625 	 0.693688 	  
 1.746002 	 2.132387 	 1.953887 	 0.945375 	 0.706063 	 0.695562 	  
 1.918922 	 2.182691 	 4.076080 	 0.948063 	 0.706063 	 0.693562 	  
 9.716017 	 2.698305 	 6.261153 	 0.945125 	 0.707875 	 0.695625 	  
 16.404855 	 3.440287 	 9.302963 	 0.947250 	 0.705813 	 0.693500 	  
 18.943627 	 6.533973 	 3.903161 	 0.945875 	 0.707937 	 0.695625 	  
 16.208356 	 9.652810 	 4.351180 	 0.945875 	 0.705813 	 0.693438 	  
 10.305515 	 9.162348 	 3.738102 	 0.948188 	 0.707875 	 0.694562 	  
 5.880349 	 8.621582 	 5.671655 	 0.945500 	 0.705625 	 0.694000 	  
 8.081142 	 8.118543 	 5.836715 	 0.948063 	 0.707562 	 0.693937 	  
 14.565621 	 7.389138 	 5.726675 	 0.945438 	 0.705875 	 0.695500 	  
 19.902544 	 6.395637 	 1.922447 	 0.948250 	 0.706562 	 0.693438 	  
 20.578501 	 6.056086 	 5.278657 	 0.945250 	 0.706500 	 0.695562 	  
 16.656374 	 4.735610 	 2.849924 	 0.948188 	 0.706063 	 0.693438 	  
 9.566677 	 4.974554 	 3.643782 	 0.945375 	 0.707813 	 0.695500 	  
 2.932859 	 6.772916 	 1.112870 	 0.947063 	 0.705750 	 0.693562 	  
 3.042898 	 9.866602 	 3.007124 	 0.945500 	 0.707688 	 0.695625 	  
 8.788540 	 10.998438 	 -1.135083 	 0.946063 	 0.705562 	 0.693312 	  
 13.292305 	 9.112044 	 -1.905360 	 0.948000 	 0.707750 	 0.694250 	  
 12.962186 	 7.363986 	 3.297943 	 0.945375 	 0.705937 	 0.695125 	  
 9.684577 	 5.791991 	 10.151841 	 0.948188 	 0.707250 	 0.693562 	  
 7.012185 	 5.125465 	 13.838169 	 0.945188 	 0.705625 	 0.695562 	  
 8.112582 	 5.955478 	 11.244377 	 0.948125 	 0.706688 	 0.693500 	  
 14.966480 	 8.131119 	 8.053228 	 0.945313 	 0.706375 	 0.695438 	  
 19.643164 	 9.891754 	 6.842791 	 0.948125 	 0.705562 	 0.693438 	  
 17.505251 	 10.432520 	 5.042857 	 0.945125 	 0.707625 	 0.695562 	  
 12.498448 	 9.866602 	 5.640215 	 0.947625 	 0.705438 	 0.693312 	  
 9.110798 	 7.829296 	 6.866371 	 0.945500 	 0.707438 	 0.695500 	  
 5.330151 	 6.144118 	 7.157190 	 0.946063 	 0.705750 	 0.693375 	  
 4.190454 	 7.288530 	 4.846358 	 0.947250 	 0.707438 	 0.695125 	  
 8.426981 	 8.734765 	 6.693452 	 0.945625 	 0.705375 	 0.693438 	  
 14.117602 	 8.231727 	 5.019277 	 0.947875 	 0.707562 	 0.694250 	  
 13.504524 	 7.275954 	 1.592328 	 0.945438 	 0.705438 	 0.694875 	  
 9.354458 	 6.596852 	 4.201840 	 0.948063 	 0.707375 	 0.693625 	  
 3.105778 	 7.577777 	 5.372976 	 0.945313 	 0.705750 	 0.695500 	  
 -0.957829 	 7.464594 	 3.014984 	 0.948375 	 0.706937 	 0.693438 	  
 -0.124672 	 7.087315 	 -0.372665 	 0.945375 	 0.707375 	 0.695500 	  
 6.949305 	 5.112889 	 -0.655624 	 0.948063 	 0.706125 	 0.693562 	  
 11.539531 	 3.151040 	 1.458709 	 0.945250 	 0.707750 	 0.695562 	  
 12.105449 	 1.101158 	 0.468352 	 0.946500 	 0.705750 	 0.693375 	  
 11.319451 	 -1.024179 	 -1.025043 	 0.947875 	 0.707625 	 0.694688 	  
 8.301221 	 -1.917072 	 -4.341952 	 0.945438 	 0.705875 	 0.694000 	  
 5.047192 	 0.560392 	 -2.502718 	 0.948250 	 0.707750 	 0.693813 	  
 6.053268 	 4.886522 	 -1.944660 	 0.945250 	 0.705688 	 0.695500 	  
 12.710667 	 5.527896 	 0.366172 	 0.948188 	 0.706562 	 0.693500 	  
 19.037946 	 5.226073 	 2.087507 	 0.945375 	 0.706875 	 0.695562 	  
 19.949703 	 4.182268 	 3.824561 	 0.948188 	 0.705562 	 0.693438 	  
 15.422358 	 4.798490 	 1.427269 	 0.945188 	 0.707750 	 0.695562 	  
 10.525594 	 7.250802 	 3.172183 	 0.946875 	 0.705625 	 0.693312 	  
 6.910006 	 8.671886 	 3.918881 	 0.946500 	 0.707562 	 0.695562 	  
 6.084708 	 8.181423 	 5.600915 	 0.945750 	 0.705813 	 0.693500 	  
 11.335171 	 6.911251 	 3.156463 	 0.948250 	 0.707813 	 0.694250 	  
 16.043296 	 7.175347 	 4.249000 	 0.945313 	 0.705625 	 0.695188 	  
 14.086162 	 8.910829 	 2.598405 	 0.948063 	 0.707375 	 0.693688 	  
 8.458421 	 11.350565 	 4.736318 	 0.945438 	 0.705750 	 0.695500 	  
 1.580943 	 11.715268 	 5.066437 	 0.948250 	 0.706063 	 0.693438 	  
 -1.893166 	 10.985862 	 5.270797 	 0.945188 	 0.707375 	 0.695625 	  
 0.551286 	 9.577355 	 6.921391 	 0.948063 	 0.705813 	 0.693438 	  
 5.416610 	 8.370063 	 7.526609 	 0.945313 	 0.707375 	 0.695625 	  
 7.279424 	 8.143695 	 8.799925 	 0.946562 	 0.705688 	 0.693438 	  
 6.587747 	 7.112467 	 5.530176 	 0.946000 	 0.707875 	 0.695438 	  
 2.532000 	 4.685307 	 6.237573 	 0.945937 	 0.705562 	 0.693250 	  
 -2.254725 	 3.641502 	 5.585196 	 0.947875 	 0.707562 	 0.694500 	  
 -3.252941 	 5.012282 	 6.882091 	 0.945500 	 0.705625 	 0.693813 	  
 3.506637 	 5.138041 	 2.331166 	 0.948063 	 0.707438 	 0.693813 	  
 9.417338 	 4.484091 	 3.305803 	 0.945250 	 0.705313 	 0.695438 	  
 11.618130 	 2.761185 	 2.134667 	 0.948188 	 0.706500 	 0.693438 	  
 9.385898 	 2.811489 	 3.470862 	 0.945375 	 0.706937 	 0.695500 	  
 4.324074 	 3.276799 	 3.321523 	 0.948250 	 0.706187 	 0.693562 	  
 0.394087 	 3.352255 	 2.441206 	 0.945250 	 0.708000 	 0.695625 	  
 3.577376 	 4.546971 	 1.215050 	 0.946438 	 0.705688 	 0.693312 	  
 12.246928 	 4.471515 	 2.464786 	 0.947875 	 0.707813 	 0.694750 	  
 16.978633 	 4.144540 	 2.001047 	 0.945500 	 0.706000 	 0.693937 	  
 17.332332 	 3.742110 	 2.983544 	 0.948250 	 0.707875 	 0.693937 	  
 14.903600 	 4.194844 	 2.118947 	 0.945375 	 0.705688 	 0.695562 	  
 10.651354 	 6.307605 	 3.329383 	 0.948125 	 0.707063 	 0.693688 	  
 6.839266 	 8.244303 	 3.164323 	 0.945438 	 0.706125 	 0.695562 	  
 8.835699 	 7.690961 	 2.912804 	 0.948188 	 0.706250 	 0.693438 	  
 15.823217 	 8.055664 	 1.953887 	 0.945125 	 0.708000 	 0.695625 	  
 19.344485 	 7.942480 	 4.060360 	 0.947438 	 0.705750 	 0.693500 	  
 17.591711 	 8.244303 	 4.390479 	 0.945688 	 0.707688 	 0.695625 	  
 12.294088 	 9.514475 	 2.936384 	 0.946125 	 0.705750 	 0.693500 	  
 4.481273 	 10.684039 	 2.857784 	 0.947063 	 0.707813 	 0.695250 	  
 -0.973549 	 9.615083 	 3.863861 	 0.945937 	 0.705438 	 0.693375 	  
 2.390520 	 8.948557 	 0.869211 	 0.948188 	 0.707750 	 0.694375 	  
 8.764960 	 11.073894 	 2.771325 	 0.945375 	 0.705875 	 0.695500 	  
 11.570971 	 13.224383 	 3.478722 	 0.948250 	 0.706875 	 0.693438 	  
 10.470574 	 15.161081 	 6.504813 	 0.945250 	 0.706250 	 0.695625 	  
 8.151882 	 14.720922 	 4.296160 	 0.948250 	 0.706125 	 0.693438 	  
 6.139728 	 13.538782 	 3.871721 	 0.945438 	 0.707375 	 0.695500 	  
 5.778169 	 12.318914 	 5.765975 	 0.947937 	 0.705750 	 0.693500 	  
 10.297655 	 10.419944 	 3.777401 	 0.945125 	 0.707625 	 0.695625 	  
 13.991843 	 9.992361 	 3.879581 	 0.946375 	 0.705500 	 0.693250 	  
 15.862517 	 10.067817 	 3.722382 	 0.946875 	 0.707688 	 0.695313 	  
 14.007563 	 11.111622 	 3.400123 	 0.945875 	 0.705438 	 0.693312 	  
 8.199041 	 11.916483 	 -0.325505 	 0.948188 	 0.707313 	 0.694250 	  
 -0.706310 	 11.099046 	 4.885658 	 0.945313 	 0.705375 	 0.694813 	  
 -3.017142 	 8.332335 	 3.329383 	 0.948063 	 0.707562 	 0.693625 	  
 4.221894 	 7.225650 	 3.486582 	 0.945438 	 0.705500 	 0.695375 	  
 10.321235 	 5.917751 	 5.294376 	 0.948313 	 0.706063 	 0.693438 	  
 10.800693 	 5.553048 	 6.842791 	 0.945313 	 0.707500 	 0.695750 	  
 8.906439 	 4.660155 	 5.828855 	 0.948250 	 0.706000 	 0.693438 	  
 7.845343 	 4.949402 	 6.787772 	 0.945313 	 0.707875 	 0.695688 	  
 7.900362 	 4.408635 	 6.048934 	 0.946625 	 0.705937 	 0.693500 	  
 10.863573 	 3.792413 	 7.086451 	 0.946750 	 0.707875 	 0.695500 	  
 14.895740 	 4.345756 	 6.599132 	 0.945937 	 0.705813 	 0.693438 	  
 17.481671 	 3.327103 	 4.838498 	 0.948063 	 0.708063 	 0.694438 	  
 17.607431 	 2.773761 	 8.823505 	 0.945562 	 0.706250 	 0.693875 	  
 15.170839 	 4.370908 	 9.774562 	 0.948188 	 0.708063 	 0.694125 	  
 7.208685 	 7.150195 	 10.128261 	 0.945500 	 0.705937 	 0.694562 	  
 0.480546 	 6.911251 	 3.596622 	 0.948188 	 0.708125 	 0.693937 	  
 1.329424 	 5.829719 	 -26.884359 	 0.945500 	 0.705813 	 0.695375 	  
 8.992899 	 5.678807 	 -22.907212 	 0.948250 	 0.706500 	 0.693562 	  
 13.646004 	 7.414290 	 -7.045784 	 0.945188 	 0.707937 	 0.695625 	  
 12.852146 	 9.300684 	 -0.553445 	 0.946625 	 0.705875 	 0.693250 	  
 10.313375 	 8.181423 	 2.975684 	 0.947688 	 0.707813 	 0.694875 	  
 6.406967 	 6.961555 	 7.982488 	 0.945500 	 0.705813 	 0.693750 	  
 4.229754 	 6.533973 	 6.441933 	 0.948188 	 0.708063 	 0.694063 	  
 7.468064 	 6.370485 	 6.111814 	 0.945438 	 0.705875 	 0.695188 	  
 9.912516 	 5.175769 	 6.119674 	 0.948125 	 0.707875 	 0.693875 	  
 10.643494 	 3.968477 	 6.764192 	 0.945500 	 0.705688 	 0.695562 	  
 9.936096 	 3.591198 	 4.932818 	 0.948250 	 0.706562 	 0.693500 	  
 7.672423 	 5.050009 	 7.526609 	 0.945188 	 0.707000 	 0.695625 	  
 5.424470 	 5.351832 	 3.195763 	 0.948250 	 0.706125 	 0.693500 	  
 8.002542 	 3.993629 	 2.386186 	 0.945250 	 0.707438 	 0.695500 	  
 13.048646 	 3.553470 	 1.804548 	 0.946750 	 0.705500 	 0.693438 	  
 15.721037 	 5.766839 	 2.307586 	 0.946000 	 0.707813 	 0.695438 	  
 12.804987 	 7.401714 	 6.842791 	 0.945813 	 0.705750 	 0.693375 	  
 8.702080 	 9.011437 	 7.337970 	 0.948000 	 0.707875 	 0.694375 	  
 4.858552 	 9.715690 	 6.921391 	 0.945500 	 0.705813 	 0.694688 	  
 -0.274011 	 7.841872 	 7.023571 	 0.948188 	 0.707500 	 0.693625 	  
 -0.863509 	 6.533973 	 4.186120 	 0.945250 	 0.705750 	 0.695562 	  
 7.263704 	 7.389138 	 4.822778 	 0.948188 	 0.706438 	 0.693375 	  
 15.092239 	 8.520974 	 5.042857 	 0.945313 	 0.706813 	 0.695562 	  
 13.983983 	 8.282031 	 5.435856 	 0.948125 	 0.706063 	 0.693500 	  
 8.426981 	 7.804144 	 5.420136 	 0.945375 	 0.707875 	 0.695625 	  
 2.924999 	 8.231727 	 -0.176166 	 0.946875 	 0.705937 	 0.693375 	  
 0.904985 	 8.030512 	 4.814918 	 0.946688 	 0.708000 	 0.695500 	  
 4.292634 	 6.169270 	 4.618419 	 0.945625 	 0.705937 	 0.693562 	  
 11.570971 	 4.760762 	 2.952104 	 0.948250 	 0.707937 	 0.694188 	  
 15.273019 	 6.823220 	 3.911021 	 0.945500 	 0.705875 	 0.695000 	  
 14.754260 	 9.250380 	 3.117164 	 0.948250 	 0.707875 	 0.693750 	  
 10.989332 	 9.690538 	 2.394046 	 0.945438 	 0.705875 	 0.695500 	  
 5.636690 	 8.847949 	 -0.018966 	 0.948188 	 0.706313 	 0.693562 	  
 3.490917 	 9.476747 	 1.026410 	 0.945188 	 0.707813 	 0.695562 	  
 8.096862 	 9.627659 	 3.722382 	 0.948125 	 0.705937 	 0.693375 	  
 14.337682 	 8.005360 	 5.860295 	 0.945375 	 0.707688 	 0.695500 	  
 16.459875 	 6.886099 	 7.432290 	 0.946500 	 0.705937 	 0.693500 	  
 15.587418 	 7.766417 	 5.553756 	 0.947375 	 0.707875 	 0.695125 	  
 11.398051 	 8.684462 	 8.485526 	 0.945750 	 0.705937 	 0.693500 	  
 7.122225 	 8.998861 	 9.397283 	 0.948188 	 0.708187 	 0.694500 	  
 7.035765 	 10.344488 	 11.260097 	 0.945562 	 0.706125 	 0.693813 	  
 12.891446 	 10.118121 	 1.718088 	 0.948188 	 0.707937 	 0.694125 	  
 16.318395 	 7.414290 	 -6.181186 	 0.945313 	 0.705625 	 0.695438 	  
 14.825000 	 5.741687 	 -7.595982 	 0.948188 	 0.707313 	 0.693562 	  
 12.160469 	 7.238226 	 -1.040763 	 0.945375 	 0.706125 	 0.695500 	  
 6.477707 	 9.740842 	 4.453359 	 0.948188 	 0.705562 	 0.693562 	  
 0.315487 	 12.029667 	 4.154680 	 0.945188 	 0.707187 	 0.695562 	  
 0.040388 	 12.142850 	 2.118947 	 0.947000 	 0.705625 	 0.693312 	  
 9.747456 	 11.099046 	 3.313663 	 0.945937 	 0.707375 	 0.695625 	  
 16.656374 	 10.042665 	 1.513729 	 0.945875 	 0.705438 	 0.693375 	  
 18.786427 	 8.797645 	 -0.066126 	 0.948000 	 0.707438 	 0.694375 	  
 16.059016 	 7.867024 	 -1.936800 	 0.945375 	 0.705562 	 0.694250 	  
 7.798183 	 6.295029 	 1.450849 	 0.948063 	 0.707500 	 0.693750 	  
 -1.720246 	 3.452863 	 1.796688 	 0.945438 	 0.705438 	 0.695375 	  
 -1.083588 	 0.484936 	 4.351180 	 0.948125 	 0.705813 	 0.693438 	  
 6.823546 	 0.145385 	 2.472646 	 0.945125 	 0.707438 	 0.695625 	  
 11.303731 	 1.201766 	 1.097150 	 0.947500 	 0.705625 	 0.693438 	  
 10.415554 	 -0.332501 	 5.907454 	 0.946188 	 0.707688 	 0.695500 	  
 5.628830 	 -2.986029 	 7.809568 	 0.945875 	 0.705750 	 0.693562 	  
 1.989662 	 -2.420110 	 7.172910 	 0.948188 	 0.707750 	 0.694312 	  
 1.863902 	 1.855716 	 4.586979 	 0.945562 	 0.705750 	 0.694937 	  
 7.436624 	 3.981053 	 2.213266 	 0.948063 	 0.707813 	 0.693813 	  
 15.296598 	 3.981053 	 -0.113286 	 0.945625 	 0.705937 	 0.695375 	  
 18.330549 	 1.943747 	 -0.655624 	 0.948250 	 0.706562 	 0.693562 	  
 14.251222 	 0.510088 	 0.955671 	 0.945188 	 0.707750 	 0.695562 	  
 7.593823 	 -1.917072 	 5.270797 	 0.948250 	 0.705937 	 0.693438 	  
 3.184378 	 -2.759661 	 3.242923 	 0.945500 	 0.707750 	 0.695625 	  
 4.457694 	 -0.257045 	 5.451576 	 0.946063 	 0.705875 	 0.693562 	  
 11.288011 	 2.723457 	 6.622712 	 0.947937 	 0.707937 	 0.694625 	  
 17.929690 	 3.578622 	 4.563399 	 0.945500 	 0.705500 	 0.694125 	  
 19.839664 	 3.377407 	 7.298670 	 0.948063 	 0.707750 	 0.693875 	  
 16.719254 	 4.961978 	 5.781695 	 0.945375 	 0.706063 	 0.695438 	  
 11.625990 	 3.855293 	 8.469806 	 0.948250 	 0.707000 	 0.693500 	  
 6.045408 	 2.358754 	 7.306530 	 0.945375 	 0.706250 	 0.695500 	  
 5.275131 	 3.842717 	 6.677732 	 0.948188 	 0.706562 	 0.693625 	  
 10.729953 	 6.772916 	 7.039291 	 0.945438 	 0.707438 	 0.695438 	  
 14.180482 	 8.395215 	 6.119674 	 0.948188 	 0.705875 	 0.693312 	  
 14.424141 	 9.137196 	 4.634139 	 0.945313 	 0.707562 	 0.695625 	  
 10.211195 	 9.891754 	 4.924958 	 0.947000 	 0.705688 	 0.693375 	  
 4.284774 	 12.306338 	 3.573042 	 0.945625 	 0.707562 	 0.695500 	  
 0.001088 	 14.456827 	 1.875288 	 0.945875 	 0.705500 	 0.693312 	  
 2.288341 	 13.098623 	 1.277929 	 0.948125 	 0.707750 	 0.694188 	  
 8.819979 	 9.866602 	 1.993187 	 0.945313 	 0.705625 	 0.694625 	  
 13.669584 	 7.590353 	 6.276873 	 0.948063 	 0.707375 	 0.693562 	  
 13.095806 	 8.935981 	 6.732752 	 0.945500 	 0.705688 	 0.695375 	  
 8.639200 	 10.520552 	 7.589489 	 0.948125 	 0.706500 	 0.693500 	  
 1.769582 	 10.457672 	 7.149330 	 0.945125 	 0.706187 	 0.695562 	  
 -2.018925 	 10.055241 	 4.374759 	 0.948375 	 0.705750 	 0.693312 	  
 2.060401 	 11.526628 	 2.598405 	 0.945375 	 0.707625 	 0.695500 	  
 11.146532 	 12.042243 	 2.999264 	 0.947750 	 0.705937 	 0.693500 	  
 16.978633 	 9.891754 	 2.818484 	 0.945937 	 0.708125 	 0.695625 	  
 15.139399 	 7.753841 	 8.194707 	 0.946188 	 0.705937 	 0.693375 	  
 10.769253 	 8.370063 	 3.635922 	 0.947500 	 0.707875 	 0.695188 	  
 6.210468 	 9.778570 	 0.806331 	 0.945750 	 0.706063 	 0.693500 	  
 4.544153 	 9.514475 	 -0.121146 	 0.948250 	 0.708125 	 0.694063 	  
 8.324801 	 8.759917 	 -1.166523 	 0.945313 	 0.706000 	 0.695500 	  
 16.153336 	 7.804144 	 -0.466985 	 0.948188 	 0.707000 	 0.693500 	  
 19.022226 	 6.835796 	 -0.954303 	 0.945500 	 0.706187 	 0.695500 	  
 15.500958 	 5.439864 	 1.694508 	 0.948250 	 0.706688 	 0.693562 	  
 10.014696 	 5.389560 	 1.725948 	 0.945375 	 0.707750 	 0.695500 	  
 3.876055 	 6.936403 	 1.647348 	 0.948063 	 0.706000 	 0.693375 	  
 1.895342 	 9.439019 	 -0.883564 	 0.945188 	 0.707688 	 0.695688 	  
 7.546664 	 9.841450 	 -1.913220 	 0.946500 	 0.705813 	 0.693438 	  
 13.056506 	 7.502321 	 -0.301925 	 0.947500 	 0.708000 	 0.695063 	  
 12.781407 	 4.861370 	 1.710228 	 0.945500 	 0.705688 	 0.694000 	  
 7.829623 	 3.993629 	 2.472646 	 0.948125 	 0.707625 	 0.693875 	  
 3.648116 	 5.112889 	 3.219343 	 0.945500 	 0.705562 	 0.695250 	  
 0.904985 	 6.307605 	 3.219343 	 0.948188 	 0.707125 	 0.693625 	  
 1.132924 	 7.615505 	 -0.042546 	 0.945313 	 0.705813 	 0.695500 	  
 7.908222 	 8.344911 	 2.834204 	 0.948313 	 0.706438 	 0.693438 	  
 11.500231 	 8.772493 	 1.089290 	 0.945438 	 0.707250 	 0.695562 	  
 9.747456 	 9.124620 	 1.828128 	 0.948125 	 0.706000 	 0.693438 	  
 7.020045 	 9.615083 	 0.169673 	 0.945250 	 0.707750 	 0.695500 	  
 2.099701 	 9.451595 	 1.112870 	 0.946875 	 0.705500 	 0.693438 	  
 -4.620577 	 9.501899 	 2.346886 	 0.946375 	 0.707500 	 0.695562 	  
 -5.579494 	 10.080393 	 0.263993 	 0.945750 	 0.705625 	 0.693438 	  
 2.005382 	 10.042665 	 2.511945 	 0.948063 	 0.707500 	 0.694063 	  
 9.896796 	 9.816298 	 2.252566 	 0.945250 	 0.705313 	 0.695250 	  
 12.207628 	 10.181001 	 6.371193 	 0.948063 	 0.707438 	 0.693625 	  
 10.116875 	 12.168002 	 7.770268 	 0.945375 	 0.705313 	 0.695438 	  
 5.644550 	 12.356642 	 5.467296 	 0.948250 	 0.706438 	 0.693500 	  
 2.052541 	 11.815875 	 7.730969 	 0.945188 	 0.707250 	 0.695500 	  
 4.041115 	 11.023590 	 4.068220 	 0.948250 	 0.705875 	 0.693438 	  
 10.635634 	 10.419944 	 5.593055 	 0.945188 	 0.707438 	 0.695688 	  
 14.526321 	 9.036588 	 3.360823 	 0.947000 	 0.705688 	 0.693438 	  
 15.178699 	 6.144118 	 3.651642 	 0.946562 	 0.707813 	 0.695375 	  
 11.256572 	 3.679230 	 4.178260 	 0.945937 	 0.705562 	 0.693375 	  
 5.778169 	 4.748186 	 5.066437 	 0.948125 	 0.707875 	 0.694438 	  
 3.545937 	 7.716113 	 8.163267 	 0.945625 	 0.705875 	 0.694312 	  
 7.861063 	 9.288108 	 1.215050 	 0.948188 	 0.707562 	 0.693813 	  
 11.791050 	 8.885677 	 4.374759 	 0.945438 	 0.705688 	 0.695500 	  
 14.141182 	 6.810644 	 2.999264 	 0.948313 	 0.706813 	 0.693500 	  
 17.167272 	 5.452440 	 2.959964 	 0.945438 	 0.706187 	 0.695500 	  
 17.458091 	 5.465016 	 0.853491 	 0.948188 	 0.706125 	 0.693500 	  
