[MyosystemBr1 Versão 3.5.61]
[Informações gerais]
	[Descrição geral] = 
	[Número de amostras por canal] = 50001.000000
	[Duração] = 25.000000 seg
	[Taxa de amostragem por canal] = 2000 Hz
	[Número de canais]  = 6
	[Canais utilizados] = 2	3	4	9	10	11	
[Informações sobre canais]
	[canal 1]
		Tipo de eletrodo = Passivo
		Descrição = 
		Unidade = uV
		Freqüência = 2000
		Filtro passa alta = 20.000000 Hz
		Filtro passa baixa = 500.000000 Hz
		Ganho do eletrodo = 20.000000
		Ganho do eletromiógrafo = 397.584015
		Tempo = 25.000000
	[canal 2]
		Tipo de eletrodo = Ativo
		Descrição = 
		Unidade = uV
		Freqüência = 2000
		Filtro passa alta = 20.000000 Hz
		Filtro passa baixa = 500.000000 Hz
		Ganho do eletrodo = 20.000000
		Ganho do eletromiógrafo = 397.583984
		Tempo = 25.000000
	[canal 3]
		Tipo de eletrodo = Ativo
		Descrição = 
		Unidade = uV
		Freqüência = 2000
		Filtro passa alta = 20.000000 Hz
		Filtro passa baixa = 500.000000 Hz
		Ganho do eletrodo = 20.000000
		Ganho do eletromiógrafo = 248.489990
		Tempo = 25.000000
	[canal 4]
		Tipo de eletrodo = Ativo
		Descrição = 
		Unidade = uV
		Freqüência = 2000
		Filtro passa alta = 20.000000 Hz
		Filtro passa baixa = 500.000000 Hz
		Ganho do eletrodo = 20.000000
		Ganho do eletromiógrafo = 397.583984
		Tempo = 25.000000
	[canal 5]
		Tipo de eletrodo = Passivo
		Descrição = 
		Unidade = uV
		Freqüência = 2000
		Filtro passa alta = 20.000000 Hz
		Filtro passa baixa = 1000.000000 Hz
		Ganho do eletrodo = 20.000000
		Ganho do eletromiógrafo = 397.584015
		Tempo = 25.000000
	[canal 6]
		Tipo de eletrodo = Passivo
		Descrição = 
		Unidade = uV
		Freqüência = 2000
		Filtro passa alta = 20.000000 Hz
		Filtro passa baixa = 1000.000000 Hz
		Ganho do eletrodo = 20.000000
		Ganho do eletromiógrafo = 397.584015
		Tempo = 25.000000
	[canal 7]
		Tipo de eletrodo = Passivo
		Descrição = 
		Unidade = uV
		Freqüência = 2000
		Filtro passa alta = 20.000000 Hz
		Filtro passa baixa = 1000.000000 Hz
		Ganho do eletrodo = 20.000000
		Ganho do eletromiógrafo = 397.584015
		Tempo = 25.000000
	[canal 8]
		Tipo de eletrodo = Passivo
		Descrição = 
		Unidade = uV
		Freqüência = 2000
		Filtro passa alta = 20.000000 Hz
		Filtro passa baixa = 1000.000000 Hz
		Ganho do eletrodo = 20.000000
		Ganho do eletromiógrafo = 397.584015
		Tempo = 25.000000
	[canal 9]
		Fonte de sinal auxiliar = Entrada em volts
		Descrição = 
		Unidade = V
		Freqüência = 2000
		Filtro passa alta = 0.000000 Hz
		Filtro passa baixa = 100000.000000 Hz
		Ganho do eletrodo = 1.000000
		Ganho do eletromiógrafo = 1.000000
		Tempo = 25.000000
	[canal 10]
		Fonte de sinal auxiliar = Entrada em volts
		Descrição = 
		Unidade = V
		Freqüência = 2000
		Filtro passa alta = 0.000000 Hz
		Filtro passa baixa = 100000.000000 Hz
		Ganho do eletrodo = 1.000000
		Ganho do eletromiógrafo = 1.000000
		Tempo = 25.000000
	[canal 11]
		Fonte de sinal auxiliar = Entrada em volts
		Descrição = 
		Unidade = V
		Freqüência = 2000
		Filtro passa alta = 0.000000 Hz
		Filtro passa baixa = 100000.000000 Hz
		Ganho do eletrodo = 1.000000
		Ganho do eletromiógrafo = 1.000000
		Tempo = 25.000000
	[canal 12]
		Fonte de sinal auxiliar = Entrada em volts
		Descrição = 
		Unidade = V
		Freqüência = 2000
		Filtro passa alta = 0.000000 Hz
		Filtro passa baixa = 100000.000000 Hz
		Ganho do eletrodo = 1.000000
		Ganho do eletromiógrafo = 1.000000
		Tempo = 25.000000
[Dados]
8.482001 	 4.194844 	 8.123967 	 0.813125 	 0.765500 	 0.728437 	  
 8.081142 	 3.012704 	 7.762408 	 0.812500 	 0.767313 	 0.730500 	  
 13.425925 	 4.584699 	 9.491603 	 0.815375 	 0.765938 	 0.728313 	  
 19.933983 	 6.999283 	 10.356200 	 0.812312 	 0.765500 	 0.730375 	  
 22.724274 	 7.112467 	 6.654152 	 0.814875 	 0.767125 	 0.729563 	  
 20.963640 	 7.464594 	 6.811352 	 0.813937 	 0.765062 	 0.728313 	  
 18.275529 	 8.659310 	 6.944971 	 0.812375 	 0.766188 	 0.730313 	  
 15.123679 	 10.004937 	 5.561616 	 0.815000 	 0.767062 	 0.728750 	  
 9.008619 	 10.709191 	 7.534469 	 0.812750 	 0.765375 	 0.728375 	  
 3.726716 	 10.306760 	 7.125751 	 0.812250 	 0.767062 	 0.730313 	  
 4.465554 	 9.086892 	 3.290083 	 0.815000 	 0.766062 	 0.728437 	  
 9.983256 	 9.061740 	 0.963530 	 0.812375 	 0.765375 	 0.730250 	  
 12.498448 	 7.992784 	 2.834204 	 0.815063 	 0.767313 	 0.729375 	  
 10.832133 	 6.798068 	 -0.584885 	 0.813500 	 0.765687 	 0.728375 	  
 8.041842 	 6.521397 	 -2.887857 	 0.812312 	 0.767687 	 0.730500 	  
 4.127575 	 5.829719 	 -1.811041 	 0.815312 	 0.766375 	 0.728375 	  
 -0.297591 	 3.981053 	 -2.109720 	 0.812438 	 0.766062 	 0.730375 	  
 1.580943 	 2.748609 	 -1.449482 	 0.815063 	 0.767813 	 0.729375 	  
 8.104722 	 3.993629 	 -0.663484 	 0.813688 	 0.765750 	 0.728375 	  
 10.769253 	 5.263801 	 0.036053 	 0.812312 	 0.767375 	 0.730313 	  
 8.364101 	 6.131542 	 -0.199746 	 0.815000 	 0.766500 	 0.728563 	  
 3.993955 	 9.388715 	 2.700585 	 0.812562 	 0.765687 	 0.729563 	  
 0.221167 	 10.558280 	 0.845631 	 0.814063 	 0.767437 	 0.730187 	  
 -0.792769 	 9.061740 	 3.007124 	 0.815063 	 0.765500 	 0.728437 	  
 2.217601 	 7.816720 	 0.028194 	 0.812375 	 0.765750 	 0.730187 	  
 5.974669 	 7.615505 	 1.710228 	 0.815063 	 0.767500 	 0.728812 	  
 6.815686 	 8.344911 	 1.387969 	 0.812813 	 0.765500 	 0.728437 	  
 5.974669 	 8.709614 	 2.071787 	 0.812438 	 0.767313 	 0.730437 	  
 1.981802 	 8.558702 	 3.738102 	 0.815250 	 0.765813 	 0.728313 	  
 -3.803140 	 8.747341 	 0.122513 	 0.812188 	 0.765188 	 0.730125 	  
 -5.013576 	 9.338412 	 1.867428 	 0.814688 	 0.767500 	 0.729875 	  
 1.156504 	 9.665386 	 0.484072 	 0.814750 	 0.765375 	 0.728187 	  
 7.263704 	 9.200076 	 -0.254766 	 0.812438 	 0.766000 	 0.730375 	  
 7.782463 	 5.817143 	 2.535525 	 0.815063 	 0.767125 	 0.728750 	  
 3.317997 	 3.100736 	 2.653425 	 0.813000 	 0.765062 	 0.728250 	  
 -1.783126 	 2.434210 	 3.148603 	 0.812375 	 0.767000 	 0.730437 	  
 -3.268661 	 2.824065 	 -0.018966 	 0.815063 	 0.765563 	 0.728375 	  
 -0.108952 	 2.949824 	 2.928524 	 0.812500 	 0.765188 	 0.730250 	  
 6.792106 	 2.710881 	 -2.101860 	 0.815063 	 0.766750 	 0.729125 	  
 10.926453 	 4.496667 	 1.812408 	 0.813562 	 0.765500 	 0.728375 	  
 9.582397 	 5.842295 	 1.655208 	 0.812375 	 0.767125 	 0.730375 	  
 5.746729 	 5.100313 	 1.969607 	 0.815312 	 0.766813 	 0.728313 	  
 1.879622 	 4.911674 	 5.844575 	 0.812375 	 0.765500 	 0.728688 	  
 -1.044289 	 5.515320 	 7.958908 	 0.812750 	 0.767250 	 0.730313 	  
 1.824602 	 6.483669 	 5.255077 	 0.815125 	 0.765625 	 0.728250 	  
 9.998976 	 5.842295 	 4.091800 	 0.812250 	 0.765687 	 0.730375 	  
 14.730680 	 4.748186 	 4.272580 	 0.815063 	 0.767687 	 0.728750 	  
 13.308025 	 4.823642 	 3.808841 	 0.813063 	 0.765750 	 0.728313 	  
 10.588474 	 5.389560 	 3.808841 	 0.812250 	 0.767687 	 0.730500 	  
 6.768526 	 5.138041 	 3.730242 	 0.815188 	 0.765938 	 0.728375 	  
 5.377311 	 4.949402 	 3.455142 	 0.812625 	 0.765875 	 0.730250 	  
 9.629557 	 5.779415 	 0.562672 	 0.815188 	 0.767625 	 0.729000 	  
 15.878237 	 7.125043 	 1.270069 	 0.813125 	 0.766000 	 0.728250 	  
 19.140126 	 8.357487 	 3.541602 	 0.812500 	 0.767875 	 0.730313 	  
 15.626717 	 8.948557 	 3.180043 	 0.815188 	 0.766563 	 0.728313 	  
 9.433057 	 9.501899 	 6.166834 	 0.812500 	 0.765938 	 0.729875 	  
 7.601683 	 9.942058 	 6.544112 	 0.814438 	 0.767813 	 0.730000 	  
 10.203335 	 9.979785 	 1.380109 	 0.814937 	 0.766000 	 0.728250 	  
 16.452015 	 8.986285 	 3.187903 	 0.812375 	 0.766000 	 0.730437 	  
 19.297326 	 8.986285 	 6.261153 	 0.815125 	 0.767687 	 0.728750 	  
 18.086889 	 10.646311 	 3.981761 	 0.813063 	 0.765625 	 0.728250 	  
 14.730680 	 10.847527 	 3.415843 	 0.812375 	 0.767500 	 0.730437 	  
 10.706373 	 10.533128 	 2.881364 	 0.815125 	 0.766250 	 0.728313 	  
 6.823546 	 10.998438 	 2.386186 	 0.812500 	 0.765687 	 0.729938 	  
 7.200825 	 9.816298 	 -1.590961 	 0.814875 	 0.767625 	 0.729812 	  
 10.651354 	 7.753841 	 -3.815334 	 0.813937 	 0.765563 	 0.728313 	  
 11.405911 	 6.056086 	 -0.639904 	 0.812562 	 0.766875 	 0.730375 	  
 9.550957 	 3.679230 	 -0.380525 	 0.815188 	 0.766938 	 0.728437 	  
 8.261921 	 3.490590 	 -0.930723 	 0.812562 	 0.765875 	 0.728625 	  
 6.603467 	 5.842295 	 -2.424119 	 0.813063 	 0.767375 	 0.730250 	  
 4.017535 	 7.137619 	 4.594839 	 0.815125 	 0.765813 	 0.728250 	  
 6.477707 	 6.810644 	 5.097877 	 0.812375 	 0.765813 	 0.730375 	  
 12.687087 	 7.301106 	 9.240084 	 0.815250 	 0.767375 	 0.728625 	  
 16.664234 	 10.206153 	 7.880308 	 0.812937 	 0.765500 	 0.728250 	  
 17.261592 	 12.897408 	 7.243650 	 0.812375 	 0.767250 	 0.730375 	  
 13.701024 	 12.243458 	 4.366899 	 0.815188 	 0.766250 	 0.728375 	  
 5.801749 	 9.288108 	 3.447282 	 0.812500 	 0.765062 	 0.729938 	  
 2.123281 	 7.502321 	 0.507652 	 0.814875 	 0.767313 	 0.729563 	  
 6.831406 	 8.558702 	 3.777401 	 0.813875 	 0.765313 	 0.728250 	  
 15.045079 	 9.124620 	 3.533742 	 0.812562 	 0.767125 	 0.730313 	  
 17.175132 	 7.678385 	 1.254350 	 0.815250 	 0.766875 	 0.728500 	  
 14.141182 	 6.609428 	 -1.433762 	 0.812500 	 0.765750 	 0.729437 	  
 9.700297 	 4.635003 	 -2.502718 	 0.815125 	 0.767500 	 0.729375 	  
 3.954655 	 3.478014 	 1.843848 	 0.813625 	 0.765625 	 0.728375 	  
 2.076121 	 2.811489 	 4.013201 	 0.812562 	 0.767625 	 0.730500 	  
 7.719583 	 2.358754 	 4.783478 	 0.815500 	 0.766188 	 0.728250 	  
 15.548118 	 3.540894 	 4.791338 	 0.812500 	 0.765563 	 0.730125 	  
 20.397722 	 5.691383 	 2.865644 	 0.814875 	 0.767750 	 0.729688 	  
 19.179426 	 7.175347 	 0.515512 	 0.813875 	 0.765625 	 0.728313 	  
 14.345542 	 7.326258 	 -0.891424 	 0.812438 	 0.767625 	 0.730313 	  
 7.232265 	 5.817143 	 -1.276562 	 0.815063 	 0.766500 	 0.728563 	  
 2.532000 	 5.817143 	 2.708445 	 0.812438 	 0.765813 	 0.730000 	  
 4.756373 	 6.760340 	 1.961747 	 0.814813 	 0.767563 	 0.729625 	  
 10.038275 	 7.275954 	 -0.726364 	 0.813937 	 0.765625 	 0.728375 	  
 13.150825 	 7.552625 	 4.469079 	 0.812250 	 0.767750 	 0.730313 	  
 10.093295 	 6.898675 	 3.486582 	 0.815188 	 0.766687 	 0.728313 	  
 2.484840 	 6.206998 	 5.616635 	 0.812375 	 0.765750 	 0.729688 	  
 -0.462651 	 6.169270 	 4.893518 	 0.814750 	 0.767938 	 0.729750 	  
 4.119715 	 6.974131 	 5.648075 	 0.813875 	 0.765813 	 0.728125 	  
 11.547391 	 8.483246 	 7.070731 	 0.812375 	 0.767625 	 0.730437 	  
 13.779623 	 10.419944 	 4.563399 	 0.815063 	 0.767000 	 0.728437 	  
 10.753533 	 11.187078 	 5.483016 	 0.812500 	 0.766000 	 0.729187 	  
 7.090785 	 9.979785 	 5.561616 	 0.813688 	 0.767750 	 0.730250 	  
 1.384444 	 8.709614 	 6.292593 	 0.814500 	 0.766000 	 0.728313 	  
 -1.924606 	 8.344911 	 7.518749 	 0.812438 	 0.766687 	 0.730250 	  
 1.903202 	 7.263378 	 5.993914 	 0.815125 	 0.767563 	 0.728375 	  
 8.647060 	 5.829719 	 5.553756 	 0.812438 	 0.765750 	 0.728563 	  
 12.592767 	 3.779838 	 4.154680 	 0.812750 	 0.767750 	 0.730375 	  
 11.311591 	 3.276799 	 0.059633 	 0.814875 	 0.765625 	 0.728250 	  
 5.864629 	 4.308028 	 -0.207606 	 0.812188 	 0.765875 	 0.730437 	  
 0.472686 	 5.087737 	 3.635922 	 0.815000 	 0.767500 	 0.728563 	  
 2.587020 	 6.093814 	 4.854218 	 0.812562 	 0.765437 	 0.728250 	  
 11.468791 	 6.169270 	 5.899595 	 0.813438 	 0.767375 	 0.730375 	  
 16.994353 	 5.125465 	 5.121457 	 0.814188 	 0.765687 	 0.728313 	  
 17.772490 	 4.609851 	 2.535525 	 0.812500 	 0.767563 	 0.730313 	  
 15.013639 	 4.018781 	 4.154680 	 0.815125 	 0.766813 	 0.728437 	  
 9.881076 	 4.056509 	 4.429779 	 0.812250 	 0.765813 	 0.729938 	  
 4.096135 	 2.622849 	 4.995697 	 0.814750 	 0.767563 	 0.729875 	  
 3.860335 	 2.321026 	 3.918881 	 0.814125 	 0.765625 	 0.728375 	  
 11.720310 	 3.113312 	 0.169673 	 0.812250 	 0.767313 	 0.730375 	  
 18.731407 	 4.094236 	 -0.152586 	 0.815312 	 0.766437 	 0.728250 	  
 19.745344 	 4.534395 	 1.427269 	 0.812500 	 0.765437 	 0.730063 	  
 16.003996 	 3.578622 	 2.150387 	 0.814875 	 0.767750 	 0.729437 	  
 10.399834 	 3.905597 	 1.812408 	 0.813875 	 0.765687 	 0.728250 	  
 4.921432 	 5.942903 	 4.814918 	 0.812375 	 0.767375 	 0.730375 	  
 3.876055 	 7.187922 	 3.675222 	 0.815063 	 0.766750 	 0.728563 	  
 9.417338 	 7.653233 	 7.628789 	 0.812438 	 0.765563 	 0.728812 	  
 14.738540 	 7.464594 	 5.160757 	 0.814438 	 0.767625 	 0.730000 	  
 13.009346 	 6.684884 	 7.275090 	 0.814312 	 0.765813 	 0.728313 	  
 9.920376 	 5.867447 	 7.510889 	 0.812188 	 0.766375 	 0.730375 	  
 6.737086 	 4.924250 	 4.193980 	 0.815188 	 0.767750 	 0.728688 	  
 3.090058 	 5.553048 	 0.979250 	 0.812750 	 0.765750 	 0.728375 	  
 3.443757 	 7.653233 	 3.714522 	 0.812688 	 0.767563 	 0.730437 	  
 8.599900 	 10.482824 	 3.800981 	 0.815188 	 0.766000 	 0.728313 	  
 13.826783 	 12.469825 	 2.433346 	 0.812375 	 0.765625 	 0.730375 	  
 15.477378 	 11.715268 	 1.694508 	 0.815000 	 0.767563 	 0.729000 	  
 12.498448 	 10.621159 	 -7.179403 	 0.813000 	 0.765563 	 0.728313 	  
 6.744946 	 9.652810 	 -9.301596 	 0.812250 	 0.767437 	 0.730375 	  
 0.755646 	 7.426866 	 -5.285149 	 0.815063 	 0.766125 	 0.728375 	  
 -0.462651 	 6.609428 	 -2.589178 	 0.812500 	 0.765437 	 0.730313 	  
 5.062912 	 6.244726 	 1.034270 	 0.815188 	 0.767250 	 0.728812 	  
 13.087946 	 8.734765 	 2.024627 	 0.812625 	 0.765687 	 0.728313 	  
 16.192636 	 11.073894 	 1.403689 	 0.812375 	 0.767437 	 0.730375 	  
 11.327311 	 10.759495 	 4.028921 	 0.815063 	 0.765500 	 0.728313 	  
 2.752079 	 10.067817 	 3.132883 	 0.812188 	 0.765687 	 0.730375 	  
 0.079688 	 9.904330 	 4.178260 	 0.815063 	 0.767437 	 0.728750 	  
 6.454127 	 11.061318 	 4.028921 	 0.812688 	 0.765687 	 0.728500 	  
 13.842503 	 10.030089 	 1.835988 	 0.813375 	 0.767625 	 0.730375 	  
 14.384841 	 8.282031 	 2.056067 	 0.814312 	 0.765875 	 0.728375 	  
 12.875726 	 6.634580 	 -0.042546 	 0.812312 	 0.767125 	 0.730375 	  
 8.529160 	 4.157116 	 1.914587 	 0.815125 	 0.766875 	 0.728375 	  
 3.278697 	 2.459362 	 3.415843 	 0.812438 	 0.765813 	 0.729437 	  
 2.437680 	 1.566469 	 4.366899 	 0.814438 	 0.767875 	 0.730063 	  
 8.419121 	 2.861792 	 2.480506 	 0.813937 	 0.765938 	 0.728375 	  
 14.376981 	 5.037433 	 5.467296 	 0.812250 	 0.767625 	 0.730500 	  
 14.086162 	 6.332757 	 7.337970 	 0.815188 	 0.766625 	 0.728437 	  
 9.888936 	 6.169270 	 4.201840 	 0.812375 	 0.765625 	 0.729812 	  
 5.165091 	 5.351832 	 4.445499 	 0.814375 	 0.767938 	 0.730063 	  
 1.840322 	 4.182268 	 3.007124 	 0.814438 	 0.766000 	 0.728313 	  
 5.149371 	 4.182268 	 4.382619 	 0.812250 	 0.766875 	 0.730313 	  
 12.121169 	 4.408635 	 4.225420 	 0.815000 	 0.767375 	 0.728625 	  
 14.314102 	 6.219574 	 2.857784 	 0.812438 	 0.765813 	 0.728938 	  
 13.080086 	 7.879600 	 4.382619 	 0.813875 	 0.767437 	 0.730375 	  
 10.313375 	 7.275954 	 6.041074 	 0.814750 	 0.765938 	 0.728437 	  
 7.546664 	 5.729111 	 5.333676 	 0.812438 	 0.766188 	 0.730313 	  
 4.355514 	 2.648001 	 3.761681 	 0.815312 	 0.767375 	 0.728563 	  
 6.045408 	 2.182691 	 5.090017 	 0.812562 	 0.765687 	 0.728500 	  
 10.517734 	 3.654078 	 4.398339 	 0.812750 	 0.767750 	 0.730437 	  
 11.130812 	 3.943325 	 1.946027 	 0.815188 	 0.765875 	 0.728250 	  
 9.047919 	 3.804989 	 -0.718504 	 0.812375 	 0.765813 	 0.730375 	  
 6.870706 	 4.219996 	 -2.431979 	 0.815000 	 0.767687 	 0.728750 	  
 5.345871 	 5.502744 	 -1.803181 	 0.812750 	 0.765750 	 0.728250 	  
 3.821036 	 6.848372 	 -0.262626 	 0.812625 	 0.767813 	 0.730313 	  
 5.990389 	 8.043088 	 5.027137 	 0.815000 	 0.766375 	 0.728500 	  
 10.368394 	 8.910829 	 3.329383 	 0.812375 	 0.766000 	 0.730437 	  
 13.025066 	 9.049164 	 1.993187 	 0.815063 	 0.767938 	 0.728750 	  
 11.641710 	 9.338412 	 -0.506285 	 0.812562 	 0.765938 	 0.728250 	  
 7.350164 	 8.822797 	 1.513729 	 0.812500 	 0.767875 	 0.730375 	  
 2.995738 	 7.389138 	 2.967824 	 0.815188 	 0.766250 	 0.728313 	  
 3.915355 	 7.351410 	 1.631628 	 0.812250 	 0.766375 	 0.730500 	  
 9.967536 	 8.319759 	 -0.034686 	 0.815125 	 0.767938 	 0.728563 	  
 14.353402 	 9.992361 	 2.134667 	 0.812562 	 0.766000 	 0.729187 	  
 15.052939 	 9.036588 	 2.983544 	 0.814688 	 0.767750 	 0.729875 	  
 11.232992 	 8.131119 	 3.046424 	 0.813750 	 0.766000 	 0.728375 	  
 6.320508 	 8.093392 	 2.103227 	 0.812500 	 0.767750 	 0.730375 	  
 3.042898 	 8.193999 	 1.364389 	 0.815125 	 0.766750 	 0.728437 	  
 5.754589 	 9.690538 	 4.854218 	 0.812375 	 0.766188 	 0.729875 	  
 12.671367 	 10.533128 	 1.906727 	 0.814875 	 0.768125 	 0.729563 	  
 15.068659 	 9.652810 	 1.254350 	 0.813750 	 0.766062 	 0.728313 	  
 14.031143 	 10.143273 	 -0.003246 	 0.812250 	 0.768062 	 0.730375 	  
 11.578831 	 11.727844 	 2.103227 	 0.815125 	 0.767250 	 0.728375 	  
 8.458421 	 10.671463 	 2.158247 	 0.812250 	 0.766000 	 0.730000 	  
 4.481273 	 5.817143 	 5.420136 	 0.814750 	 0.768000 	 0.729437 	  
 4.874272 	 2.937248 	 4.618419 	 0.813500 	 0.766437 	 0.728313 	  
 10.918593 	 4.031357 	 2.881364 	 0.812312 	 0.767875 	 0.730250 	  
 14.345542 	 5.213497 	 3.753821 	 0.815063 	 0.766687 	 0.728437 	  
 12.144749 	 5.703959 	 5.286516 	 0.812375 	 0.766000 	 0.730125 	  
 8.584180 	 5.226073 	 4.398339 	 0.815063 	 0.767938 	 0.729375 	  
 5.196531 	 4.773338 	 5.459436 	 0.813375 	 0.765938 	 0.728375 	  
 4.772093 	 5.138041 	 4.178260 	 0.812375 	 0.767875 	 0.730375 	  
 6.996465 	 5.490168 	 7.094311 	 0.815312 	 0.766813 	 0.728375 	  
 9.951816 	 6.005782 	 3.423703 	 0.812375 	 0.766000 	 0.729875 	  
 12.537747 	 5.779415 	 3.588762 	 0.814688 	 0.767750 	 0.729875 	  
 12.781407 	 6.169270 	 3.321523 	 0.814188 	 0.765687 	 0.728187 	  
 9.032199 	 5.540472 	 0.987110 	 0.812375 	 0.767188 	 0.730437 	  
 3.538077 	 3.628926 	 0.861351 	 0.815000 	 0.766687 	 0.728375 	  
 -0.423351 	 2.660577 	 4.869938 	 0.812500 	 0.765563 	 0.729688 	  
 0.991445 	 3.591198 	 4.445499 	 0.814562 	 0.767625 	 0.729875 	  
 6.226188 	 6.445941 	 2.252566 	 0.813875 	 0.766000 	 0.728313 	  
 10.808553 	 8.520974 	 2.842064 	 0.812438 	 0.767563 	 0.730313 	  
 10.038275 	 9.124620 	 3.313663 	 0.815063 	 0.766938 	 0.728375 	  
 4.992172 	 9.640235 	 2.134667 	 0.812312 	 0.765687 	 0.728688 	  
 1.297984 	 9.464171 	 3.368683 	 0.814375 	 0.767813 	 0.730125 	  
 3.113638 	 9.816298 	 -0.207606 	 0.813688 	 0.765938 	 0.728250 	  
 9.716017 	 10.331912 	 4.170400 	 0.812188 	 0.767750 	 0.730375 	  
 13.253005 	 10.709191 	 1.293649 	 0.815250 	 0.766563 	 0.728313 	  
 12.529887 	 11.627236 	 0.743451 	 0.812562 	 0.765938 	 0.730250 	  
 10.533454 	 10.520552 	 1.576609 	 0.815125 	 0.767938 	 0.729187 	  
 6.273348 	 7.552625 	 0.735591 	 0.813000 	 0.766062 	 0.728375 	  
 2.272621 	 4.974554 	 0.036053 	 0.812438 	 0.767875 	 0.730437 	  
 2.461260 	 5.452440 	 4.634139 	 0.815125 	 0.766625 	 0.728375 	  
 9.291578 	 8.080816 	 4.115380 	 0.812312 	 0.765875 	 0.730375 	  
 15.430218 	 7.892176 	 2.056067 	 0.815188 	 0.767750 	 0.729313 	  
 15.697457 	 5.892599 	 3.596622 	 0.813500 	 0.765687 	 0.728187 	  
 12.860006 	 3.591198 	 0.028194 	 0.812312 	 0.767563 	 0.730375 	  
 6.949305 	 1.868292 	 -0.710644 	 0.815250 	 0.766500 	 0.728375 	  
 1.966082 	 1.277222 	 0.122513 	 0.812312 	 0.765375 	 0.730125 	  
 4.324074 	 1.641924 	 1.042130 	 0.814937 	 0.767563 	 0.729500 	  
 11.767470 	 2.673153 	 0.146093 	 0.813500 	 0.765625 	 0.728250 	  
 15.037219 	 2.685729 	 1.788828 	 0.812375 	 0.767563 	 0.730250 	  
 14.235502 	 3.377407 	 2.912804 	 0.815125 	 0.766313 	 0.728437 	  
 13.276585 	 5.490168 	 6.261153 	 0.812438 	 0.765750 	 0.730313 	  
 12.223348 	 6.181846 	 4.461219 	 0.815250 	 0.767563 	 0.729063 	  
 10.816413 	 6.093814 	 3.470862 	 0.813375 	 0.765625 	 0.728375 	  
 11.924669 	 7.351410 	 2.747745 	 0.812312 	 0.767563 	 0.730313 	  
 13.111526 	 9.778570 	 1.364389 	 0.815188 	 0.766500 	 0.728375 	  
 12.301948 	 9.539627 	 4.115380 	 0.812375 	 0.765625 	 0.730187 	  
 11.083652 	 8.269455 	 4.634139 	 0.815000 	 0.767813 	 0.729500 	  
 7.452344 	 8.835373 	 3.635922 	 0.813875 	 0.765563 	 0.728187 	  
 2.429820 	 9.728266 	 2.794905 	 0.812312 	 0.767188 	 0.730375 	  
 1.612383 	 9.564779 	 2.574825 	 0.815000 	 0.766500 	 0.728375 	  
 8.631340 	 10.495400 	 3.077864 	 0.812500 	 0.765375 	 0.729563 	  
 15.045079 	 10.294184 	 3.022844 	 0.814500 	 0.767313 	 0.729875 	  
 14.675660 	 9.514475 	 6.331893 	 0.813688 	 0.765437 	 0.728313 	  
 13.551684 	 9.451595 	 4.390479 	 0.812312 	 0.767188 	 0.730250 	  
 10.627774 	 9.791146 	 8.391206 	 0.815188 	 0.766250 	 0.728250 	  
 5.031472 	 10.080393 	 6.528392 	 0.812375 	 0.765563 	 0.730125 	  
 4.363374 	 9.577355 	 6.331893 	 0.815000 	 0.767687 	 0.729500 	  
 11.460931 	 9.237804 	 4.846358 	 0.813750 	 0.765687 	 0.728313 	  
 18.943627 	 9.036588 	 3.918881 	 0.812312 	 0.767563 	 0.730375 	  
 19.768924 	 8.118543 	 2.873504 	 0.815250 	 0.766625 	 0.728313 	  
 15.288738 	 6.974131 	 1.222910 	 0.812562 	 0.765563 	 0.729812 	  
 9.425197 	 5.276377 	 1.977467 	 0.814937 	 0.767625 	 0.729688 	  
 3.797456 	 4.219996 	 -1.811041 	 0.813813 	 0.765750 	 0.728250 	  
 5.267271 	 4.106812 	 -0.427685 	 0.812438 	 0.767188 	 0.730313 	  
 10.816413 	 4.131964 	 -1.535941 	 0.815188 	 0.766375 	 0.728500 	  
 12.860006 	 4.245148 	 -2.746378 	 0.812312 	 0.765500 	 0.729563 	  
 12.050429 	 4.219996 	 -3.681714 	 0.815125 	 0.767250 	 0.729375 	  
 5.974669 	 5.125465 	 -2.306219 	 0.813750 	 0.765375 	 0.728250 	  
 -0.926389 	 5.376984 	 -4.043273 	 0.812250 	 0.767375 	 0.730437 	  
 -5.265095 	 4.723034 	 -4.216193 	 0.815188 	 0.766125 	 0.728375 	  
 -2.223285 	 4.848794 	 3.384403 	 0.812438 	 0.765563 	 0.730187 	  
 4.363374 	 5.276377 	 3.651642 	 0.815125 	 0.767437 	 0.729063 	  
 10.478434 	 5.741687 	 7.345830 	 0.813063 	 0.765875 	 0.728187 	  
 13.598844 	 7.313682 	 7.558049 	 0.812625 	 0.767313 	 0.730313 	  
 11.673150 	 8.571278 	 5.160757 	 0.815188 	 0.766125 	 0.728437 	  
 5.856769 	 8.546126 	 5.742395 	 0.812438 	 0.765563 	 0.730063 	  
 3.844616 	 7.665809 	 -0.781384 	 0.815125 	 0.767313 	 0.729250 	  
 7.546664 	 6.911251 	 0.664851 	 0.813562 	 0.765500 	 0.728250 	  
 10.902873 	 5.213497 	 -1.174383 	 0.812375 	 0.767500 	 0.730375 	  
 11.783190 	 3.490590 	 3.879581 	 0.815438 	 0.766000 	 0.728187 	  
 12.781407 	 4.043933 	 4.917098 	 0.812500 	 0.765375 	 0.730313 	  
 10.541314 	 4.333180 	 7.282950 	 0.815000 	 0.767563 	 0.729063 	  
 3.483057 	 4.018781 	 6.803492 	 0.813375 	 0.765375 	 0.728125 	  
 2.005382 	 4.635003 	 5.003557 	 0.812250 	 0.767375 	 0.730313 	  
 8.395541 	 7.225650 	 3.400123 	 0.815125 	 0.766313 	 0.728437 	  
 15.084379 	 10.344488 	 2.276146 	 0.812375 	 0.765563 	 0.729563 	  
 17.497391 	 9.564779 	 3.109304 	 0.814875 	 0.767125 	 0.729437 	  
 13.418065 	 7.816720 	 0.798471 	 0.813438 	 0.765375 	 0.728313 	  
 6.548447 	 7.540049 	 4.531959 	 0.812438 	 0.767437 	 0.730313 	  
 1.565223 	 7.275954 	 3.738102 	 0.815188 	 0.766000 	 0.728250 	  
 3.506637 	 7.854448 	 1.678788 	 0.812375 	 0.765437 	 0.730313 	  
 9.763176 	 7.099891 	 2.920664 	 0.815125 	 0.767313 	 0.728875 	  
 12.742107 	 4.987130 	 1.498009 	 0.813000 	 0.765313 	 0.728187 	  
 12.875726 	 5.226073 	 0.240413 	 0.812562 	 0.767313 	 0.730500 	  
 11.288011 	 6.496245 	 3.187903 	 0.815125 	 0.765750 	 0.728313 	  
 8.717800 	 7.753841 	 4.398339 	 0.812500 	 0.765437 	 0.730250 	  
 5.872489 	 7.665809 	 4.296160 	 0.815125 	 0.767250 	 0.728938 	  
 8.552740 	 8.319759 	 9.122184 	 0.813188 	 0.765500 	 0.728250 	  
 15.359478 	 9.149772 	 5.758115 	 0.812500 	 0.767375 	 0.730375 	  
 17.245872 	 9.250380 	 1.922447 	 0.815250 	 0.765938 	 0.728375 	  
 12.671367 	 7.552625 	 1.875288 	 0.812312 	 0.765125 	 0.730250 	  
 8.018262 	 4.396060 	 1.757388 	 0.815125 	 0.767000 	 0.729250 	  
 4.897852 	 3.075584 	 -2.565598 	 0.814000 	 0.765188 	 0.728187 	  
 4.331934 	 5.376984 	 2.063927 	 0.812375 	 0.767188 	 0.730375 	  
 7.585963 	 7.741265 	 4.068220 	 0.815250 	 0.766062 	 0.728250 	  
 12.985766 	 9.212652 	 0.955671 	 0.812438 	 0.765437 	 0.730063 	  
 15.846797 	 8.181423 	 4.319740 	 0.815000 	 0.767437 	 0.729375 	  
 15.736757 	 7.527473 	 3.793121 	 0.813875 	 0.765625 	 0.728187 	  
 14.636361 	 9.703114 	 0.853491 	 0.812500 	 0.766938 	 0.730250 	  
 10.148315 	 11.136774 	 2.394046 	 0.815125 	 0.766875 	 0.728563 	  
 7.609543 	 9.979785 	 -2.125440 	 0.812625 	 0.765500 	 0.728688 	  
 10.203335 	 6.873523 	 -3.493075 	 0.814438 	 0.767250 	 0.729938 	  
 11.877510 	 4.056509 	 -2.777817 	 0.814125 	 0.765437 	 0.728250 	  
 9.448777 	 4.245148 	 0.515512 	 0.812250 	 0.766687 	 0.730250 	  
 4.206174 	 4.861370 	 -2.644198 	 0.815312 	 0.766938 	 0.728437 	  
 -1.295808 	 4.484091 	 1.026410 	 0.812500 	 0.765188 	 0.728938 	  
 -5.673814 	 4.182268 	 -0.592744 	 0.814750 	 0.767000 	 0.729625 	  
 -6.019653 	 5.691383 	 0.374032 	 0.813937 	 0.765188 	 0.728063 	  
 1.313704 	 7.011859 	 -1.748161 	 0.812250 	 0.766875 	 0.730313 	  
 8.945739 	 6.206998 	 1.993187 	 0.815125 	 0.765875 	 0.728313 	  
 10.517734 	 4.987130 	 3.659502 	 0.812562 	 0.765188 	 0.730000 	  
 8.254061 	 5.301529 	 0.971390 	 0.815188 	 0.767000 	 0.729187 	  
 4.355514 	 6.684884 	 1.930307 	 0.813250 	 0.765188 	 0.728313 	  
 2.799239 	 6.722612 	 2.189687 	 0.812500 	 0.767250 	 0.730375 	  
 5.903929 	 5.880023 	 1.725948 	 0.815312 	 0.765188 	 0.728250 	  
 11.798910 	 7.250802 	 0.782751 	 0.812438 	 0.765687 	 0.730313 	  
 16.687814 	 8.546126 	 4.618419 	 0.815312 	 0.767313 	 0.728625 	  
 17.489531 	 8.646734 	 6.033214 	 0.812937 	 0.765188 	 0.728375 	  
 15.084379 	 7.615505 	 5.215777 	 0.813250 	 0.767125 	 0.730375 	  
 10.446994 	 7.841872 	 3.903161 	 0.815188 	 0.765563 	 0.728313 	  
 7.177245 	 8.256879 	 5.577336 	 0.812562 	 0.765500 	 0.730313 	  
 7.405184 	 6.659732 	 6.921391 	 0.815125 	 0.767313 	 0.728875 	  
 11.185832 	 5.691383 	 8.603426 	 0.812875 	 0.765687 	 0.728250 	  
 14.196202 	 6.684884 	 5.718815 	 0.812438 	 0.767375 	 0.730375 	  
 13.465224 	 8.156271 	 5.137177 	 0.815250 	 0.765750 	 0.728375 	  
 8.725660 	 7.766417 	 6.646292 	 0.812438 	 0.765313 	 0.730250 	  
 3.931075 	 6.357909 	 2.724165 	 0.815250 	 0.767500 	 0.728875 	  
 1.046465 	 6.772916 	 5.325816 	 0.813188 	 0.765437 	 0.728375 	  
 3.750296 	 8.080816 	 5.090017 	 0.812250 	 0.767313 	 0.730375 	  
 10.714233 	 9.200076 	 3.745961 	 0.815375 	 0.766125 	 0.728313 	  
 15.445938 	 9.577355 	 6.198274 	 0.812500 	 0.765313 	 0.730375 	  
 14.424141 	 8.269455 	 6.324033 	 0.815063 	 0.767375 	 0.729187 	  
 9.708157 	 7.187922 	 5.553756 	 0.813500 	 0.765563 	 0.728187 	  
 4.269054 	 6.181846 	 -0.459125 	 0.812438 	 0.767500 	 0.730313 	  
 0.763506 	 6.030934 	 2.511945 	 0.815250 	 0.766188 	 0.728375 	  
 4.496993 	 7.200498 	 2.142527 	 0.812438 	 0.765687 	 0.730250 	  
 11.602410 	 8.370063 	 6.080374 	 0.815188 	 0.767188 	 0.728938 	  
 14.078302 	 9.589931 	 6.858511 	 0.813438 	 0.765500 	 0.728250 	  
 12.207628 	 9.564779 	 3.824561 	 0.812500 	 0.767375 	 0.730313 	  
 7.475924 	 8.797645 	 4.288300 	 0.815125 	 0.766437 	 0.728313 	  
 2.665619 	 8.445518 	 4.186120 	 0.812500 	 0.765313 	 0.728750 	  
 2.178301 	 8.193999 	 2.228986 	 0.813813 	 0.767437 	 0.730125 	  
 5.778169 	 6.948979 	 3.423703 	 0.814688 	 0.765250 	 0.728187 	  
 10.234775 	 6.219574 	 5.380836 	 0.812375 	 0.766375 	 0.730375 	  
 13.363045 	 7.112467 	 5.962474 	 0.815063 	 0.766938 	 0.728375 	  
 11.531671 	 9.250380 	 2.425486 	 0.812750 	 0.765313 	 0.728625 	  
 6.359807 	 9.262956 	 1.403689 	 0.813875 	 0.767563 	 0.730313 	  
 1.918922 	 7.678385 	 0.712011 	 0.814125 	 0.765750 	 0.728313 	  
 1.950362 	 6.873523 	 0.892791 	 0.812500 	 0.767188 	 0.730187 	  
 5.141511 	 6.307605 	 0.287573 	 0.815375 	 0.766875 	 0.728375 	  
 9.527377 	 6.445941 	 -0.875704 	 0.812500 	 0.765625 	 0.729500 	  
 14.487021 	 5.980630 	 -1.488782 	 0.814688 	 0.767625 	 0.729812 	  
 15.579558 	 5.100313 	 -3.131516 	 0.814063 	 0.765625 	 0.728187 	  
 10.619914 	 5.087737 	 -4.727091 	 0.812375 	 0.767250 	 0.730500 	  
 2.241181 	 4.408635 	 -7.336603 	 0.815188 	 0.766625 	 0.728437 	  
 2.060401 	 4.308028 	 -3.634555 	 0.812562 	 0.765313 	 0.730063 	  
 11.343031 	 4.194844 	 -1.818901 	 0.815125 	 0.767313 	 0.729375 	  
 17.748911 	 3.503166 	 4.154680 	 0.813438 	 0.765375 	 0.728313 	  
 16.632794 	 4.559547 	 0.759171 	 0.812562 	 0.766938 	 0.730375 	  
 11.099372 	 5.414712 	 1.152170 	 0.815250 	 0.766062 	 0.728437 	  
 5.903929 	 5.100313 	 2.244706 	 0.812438 	 0.765500 	 0.729938 	  
 5.094352 	 3.553470 	 3.918881 	 0.815063 	 0.767437 	 0.729437 	  
 9.873216 	 4.194844 	 7.510889 	 0.813750 	 0.765563 	 0.728250 	  
 15.493098 	 6.131542 	 6.646292 	 0.812375 	 0.767625 	 0.730437 	  
 16.782134 	 7.653233 	 3.596622 	 0.815438 	 0.766437 	 0.728313 	  
 13.787483 	 7.778993 	 3.981761 	 0.812562 	 0.765625 	 0.729000 	  
 8.709940 	 6.710036 	 3.093584 	 0.814375 	 0.767437 	 0.730125 	  
 2.846399 	 5.691383 	 4.099660 	 0.813875 	 0.765563 	 0.728313 	  
 1.117204 	 5.603352 	 6.764192 	 0.812500 	 0.767125 	 0.730313 	  
 5.558090 	 6.295029 	 7.306530 	 0.815063 	 0.766625 	 0.728500 	  
 10.352674 	 8.822797 	 2.095367 	 0.812688 	 0.765437 	 0.728625 	  
 13.811063 	 10.797223 	 1.702368 	 0.813188 	 0.767375 	 0.730250 	  
 13.873943 	 10.482824 	 1.820268 	 0.814937 	 0.765500 	 0.728250 	  
 8.584180 	 8.181423 	 2.739885 	 0.812375 	 0.766500 	 0.730313 	  
 2.492700 	 5.867447 	 -2.919297 	 0.815125 	 0.767000 	 0.728500 	  
 3.624536 	 5.917751 	 2.747745 	 0.812438 	 0.765313 	 0.728812 	  
 10.596334 	 5.263801 	 1.930307 	 0.813688 	 0.767250 	 0.730250 	  
 13.425925 	 4.848794 	 5.050717 	 0.815000 	 0.765500 	 0.728125 	  
 13.512384 	 5.376984 	 4.508379 	 0.812375 	 0.765938 	 0.730313 	  
 11.146532 	 6.395637 	 7.526609 	 0.815188 	 0.766938 	 0.728500 	  
 6.682066 	 7.326258 	 2.614125 	 0.812625 	 0.765813 	 0.730000 	  
 2.201881 	 5.968054 	 1.325089 	 0.815188 	 0.767563 	 0.729375 	  
 3.679556 	 6.508821 	 0.767031 	 0.813688 	 0.766000 	 0.728375 	  
 11.492371 	 7.942480 	 1.725948 	 0.812562 	 0.767687 	 0.730375 	  
 15.524538 	 8.168847 	 4.115380 	 0.815250 	 0.766000 	 0.728250 	  
 13.944683 	 7.338834 	 5.883875 	 0.812375 	 0.765687 	 0.730313 	  
 13.598844 	 5.817143 	 2.535525 	 0.815188 	 0.767687 	 0.729375 	  
 11.539531 	 5.553048 	 1.812408 	 0.813750 	 0.765563 	 0.728250 	  
 6.847126 	 5.729111 	 4.359039 	 0.812312 	 0.767250 	 0.730313 	  
 6.517007 	 5.314105 	 3.085724 	 0.815125 	 0.766125 	 0.728313 	  
 12.388408 	 4.408635 	 4.319740 	 0.812438 	 0.765500 	 0.730250 	  
 15.666017 	 3.704382 	 5.427996 	 0.815063 	 0.767437 	 0.729187 	  
 13.174405 	 4.182268 	 6.096094 	 0.813312 	 0.765437 	 0.728250 	  
 8.686360 	 5.314105 	 4.146820 	 0.812438 	 0.767375 	 0.730313 	  
 4.190454 	 6.609428 	 4.013201 	 0.815125 	 0.766313 	 0.728313 	  
 2.233321 	 6.760340 	 2.024627 	 0.812375 	 0.765437 	 0.730250 	  
 5.880349 	 5.892599 	 1.034270 	 0.815250 	 0.767687 	 0.729375 	  
 10.737813 	 5.691383 	 5.034997 	 0.813688 	 0.765563 	 0.728250 	  
 12.647787 	 5.402136 	 2.488366 	 0.812375 	 0.767375 	 0.730437 	  
 11.162252 	 5.213497 	 4.445499 	 0.815312 	 0.766437 	 0.728375 	  
 7.696003 	 4.559547 	 5.710955 	 0.812500 	 0.765437 	 0.729500 	  
 2.288341 	 3.968477 	 5.726675 	 0.814438 	 0.767500 	 0.730125 	  
 -0.470510 	 4.873946 	 4.995697 	 0.814562 	 0.765437 	 0.728250 	  
 4.496993 	 5.515320 	 3.785261 	 0.812438 	 0.767125 	 0.730313 	  
 11.319451 	 5.490168 	 2.268286 	 0.815063 	 0.766500 	 0.728437 	  
 13.315885 	 6.747764 	 2.566965 	 0.812438 	 0.765625 	 0.729625 	  
 10.305515 	 8.520974 	 0.499792 	 0.814312 	 0.767563 	 0.730000 	  
 4.190454 	 9.715690 	 1.686648 	 0.814438 	 0.765437 	 0.728375 	  
 -0.297591 	 8.219151 	 2.488366 	 0.812375 	 0.766750 	 0.730375 	  
 0.818525 	 5.565624 	 0.436912 	 0.815375 	 0.766938 	 0.728375 	  
 9.731736 	 4.848794 	 0.468352 	 0.812438 	 0.765375 	 0.729313 	  
 17.662451 	 6.458517 	 2.158247 	 0.814750 	 0.767563 	 0.729812 	  
 17.520971 	 8.835373 	 1.309369 	 0.813875 	 0.765750 	 0.728313 	  
 13.646004 	 8.772493 	 2.590545 	 0.812438 	 0.767687 	 0.730375 	  
 6.650626 	 8.420366 	 1.639488 	 0.815188 	 0.766500 	 0.728437 	  
 0.535566 	 8.684462 	 2.677005 	 0.812625 	 0.765875 	 0.730313 	  
 2.744219 	 7.703537 	 1.733808 	 0.815250 	 0.767500 	 0.729125 	  
 10.926453 	 8.470670 	 5.514456 	 0.813375 	 0.765750 	 0.728250 	  
 15.508818 	 10.357064 	 5.978194 	 0.812562 	 0.767687 	 0.730375 	  
 16.601354 	 11.803300 	 0.114653 	 0.815312 	 0.766500 	 0.728250 	  
 14.982199 	 11.073894 	 2.480506 	 0.812438 	 0.765813 	 0.730187 	  
 9.708157 	 9.124620 	 0.051773 	 0.815188 	 0.767750 	 0.729500 	  
 6.265488 	 8.357487 	 -2.353379 	 0.813688 	 0.765500 	 0.728125 	  
 10.698513 	 7.502321 	 -3.461635 	 0.812250 	 0.767500 	 0.730563 	  
 16.176916 	 6.282453 	 -0.349085 	 0.815188 	 0.766062 	 0.728313 	  
 16.774274 	 5.917751 	 4.154680 	 0.812500 	 0.765500 	 0.730250 	  
 14.376981 	 6.056086 	 3.211483 	 0.815125 	 0.767563 	 0.729250 	  
 9.637417 	 7.150195 	 5.042857 	 0.813375 	 0.765750 	 0.728187 	  
 4.504853 	 7.238226 	 2.134667 	 0.812500 	 0.767625 	 0.730250 	  
 2.594880 	 6.295029 	 1.238630 	 0.815312 	 0.766188 	 0.728437 	  
 8.529160 	 6.232150 	 4.414059 	 0.812375 	 0.765875 	 0.730250 	  
 15.642437 	 7.439442 	 -0.160446 	 0.815375 	 0.768062 	 0.729125 	  
 14.007563 	 9.137196 	 0.531232 	 0.813500 	 0.765938 	 0.728250 	  
 7.978962 	 10.256457 	 1.804548 	 0.812250 	 0.767875 	 0.730437 	  
 1.565223 	 9.765994 	 2.732025 	 0.815312 	 0.766375 	 0.728375 	  
 -0.596270 	 8.219151 	 3.887441 	 0.812438 	 0.765437 	 0.730250 	  
 1.612383 	 6.810644 	 5.483016 	 0.815000 	 0.767500 	 0.729187 	  
 5.149371 	 7.540049 	 4.862078 	 0.813625 	 0.765500 	 0.728250 	  
 7.688143 	 9.099468 	 2.378326 	 0.812375 	 0.767437 	 0.730313 	  
 8.010402 	 8.458094 	 4.327600 	 0.815125 	 0.766188 	 0.728375 	  
 6.336227 	 7.766417 	 3.769541 	 0.812375 	 0.765687 	 0.730250 	  
 3.082198 	 7.690961 	 3.407983 	 0.815125 	 0.767750 	 0.729375 	  
 0.441247 	 8.080816 	 4.343320 	 0.813750 	 0.765563 	 0.728313 	  
 1.918922 	 7.590353 	 0.609832 	 0.812250 	 0.767563 	 0.730313 	  
 7.232265 	 5.402136 	 0.028194 	 0.815312 	 0.766250 	 0.728187 	  
 9.959676 	 3.628926 	 1.694508 	 0.812438 	 0.765875 	 0.730313 	  
 9.142238 	 2.635425 	 0.680571 	 0.815188 	 0.767875 	 0.728938 	  
 6.406967 	 2.761185 	 0.900651 	 0.813000 	 0.765750 	 0.728250 	  
 5.707430 	 3.402559 	 2.189687 	 0.813375 	 0.767938 	 0.730375 	  
 6.108288 	 4.873946 	 3.337243 	 0.814688 	 0.766062 	 0.728375 	  
 10.918593 	 4.924250 	 2.142527 	 0.812500 	 0.767125 	 0.730375 	  
 17.293032 	 2.144963 	 4.083940 	 0.815312 	 0.767062 	 0.728437 	  
 18.731407 	 0.950247 	 3.856001 	 0.812500 	 0.765687 	 0.728750 	  
 16.051156 	 1.189190 	 5.593055 	 0.813875 	 0.767563 	 0.730250 	  
 11.681010 	 2.383906 	 4.924958 	 0.815063 	 0.765875 	 0.728250 	  
 8.757100 	 3.704382 	 3.345103 	 0.812375 	 0.766000 	 0.730375 	  
 7.326584 	 4.131964 	 5.522316 	 0.815188 	 0.767437 	 0.728688 	  
 9.888936 	 3.880445 	 3.266503 	 0.812562 	 0.765500 	 0.728563 	  
 14.408421 	 4.194844 	 2.260426 	 0.813125 	 0.767250 	 0.730437 	  
 15.304458 	 5.339256 	 5.773835 	 0.815188 	 0.766062 	 0.728313 	  
 13.378765 	 5.930327 	 2.527665 	 0.812438 	 0.766125 	 0.730313 	  
 9.708157 	 4.119388 	 3.148603 	 0.815125 	 0.767687 	 0.728750 	  
 5.683850 	 3.176191 	 2.244706 	 0.812625 	 0.765750 	 0.728500 	  
 7.452344 	 3.779838 	 2.228986 	 0.813875 	 0.767687 	 0.730250 	  
 13.386625 	 6.068662 	 -1.583101 	 0.814562 	 0.765625 	 0.728375 	  
 15.721037 	 7.250802 	 -0.050406 	 0.812250 	 0.767437 	 0.730375 	  
 12.773547 	 6.471093 	 3.227203 	 0.815500 	 0.767188 	 0.728437 	  
 7.570243 	 6.609428 	 2.944244 	 0.812625 	 0.765938 	 0.728750 	  
 3.938935 	 8.621582 	 1.788828 	 0.813750 	 0.767938 	 0.730250 	  
 -0.926389 	 10.684039 	 2.739885 	 0.814750 	 0.765938 	 0.728187 	  
 -0.722030 	 11.765572 	 0.216833 	 0.812438 	 0.766875 	 0.730250 	  
 7.342304 	 11.564356 	 1.490149 	 0.815125 	 0.766875 	 0.728437 	  
 14.714960 	 11.224805 	 1.914587 	 0.812500 	 0.765750 	 0.729375 	  
 15.241579 	 10.004937 	 6.096094 	 0.814875 	 0.767625 	 0.729563 	  
 9.346598 	 9.879178 	 5.883875 	 0.814000 	 0.765750 	 0.728375 	  
 2.131141 	 10.331912 	 5.946754 	 0.812312 	 0.767313 	 0.730313 	  
 -1.877446 	 9.992361 	 3.227203 	 0.815250 	 0.766687 	 0.728250 	  
 1.502343 	 9.728266 	 -1.763881 	 0.812438 	 0.765875 	 0.729875 	  
 8.804259 	 9.049164 	 -1.976100 	 0.814937 	 0.767875 	 0.729500 	  
 12.954326 	 8.520974 	 1.285789 	 0.813813 	 0.766125 	 0.728250 	  
 12.003269 	 8.168847 	 5.553756 	 0.812438 	 0.768250 	 0.730375 	  
 9.448777 	 8.080816 	 6.166834 	 0.815250 	 0.766625 	 0.728375 	  
 6.296928 	 8.973709 	 3.934601 	 0.812750 	 0.766437 	 0.730313 	  
 4.371234 	 8.935981 	 2.063927 	 0.815312 	 0.768000 	 0.728750 	  
 7.161525 	 8.420366 	 2.975684 	 0.812750 	 0.765938 	 0.728313 	  
 13.040786 	 7.678385 	 0.043913 	 0.812937 	 0.767938 	 0.730375 	  
 15.988276 	 8.282031 	 -0.946443 	 0.815312 	 0.766000 	 0.728250 	  
 16.231935 	 7.540049 	 0.822051 	 0.812438 	 0.766125 	 0.730375 	  
 13.520244 	 6.219574 	 4.610559 	 0.815250 	 0.767875 	 0.728688 	  
 10.305515 	 7.137619 	 6.764192 	 0.812937 	 0.765875 	 0.728250 	  
 9.778896 	 8.910829 	 5.019277 	 0.812438 	 0.767875 	 0.730375 	  
 11.963969 	 9.376139 	 4.712738 	 0.815312 	 0.765938 	 0.728313 	  
 15.422358 	 7.665809 	 5.372976 	 0.812438 	 0.766062 	 0.730250 	  
 16.428435 	 6.948979 	 4.461219 	 0.815125 	 0.767750 	 0.728750 	  
 12.977906 	 8.973709 	 5.593055 	 0.812937 	 0.766062 	 0.728250 	  
 7.216545 	 10.080393 	 4.343320 	 0.812500 	 0.768062 	 0.730125 	  
 1.612383 	 9.652810 	 7.172910 	 0.815375 	 0.766563 	 0.728375 	  
 2.036821 	 8.722190 	 4.107520 	 0.812562 	 0.766375 	 0.730375 	  
 7.216545 	 6.735188 	 1.553029 	 0.815375 	 0.768188 	 0.728625 	  
 11.162252 	 5.515320 	 2.409766 	 0.812937 	 0.766188 	 0.728250 	  
 10.973612 	 5.477592 	 3.423703 	 0.812625 	 0.768062 	 0.730250 	  
 7.617403 	 5.251225 	 5.388696 	 0.815438 	 0.766375 	 0.728250 	  
 3.223678 	 6.546549 	 7.337970 	 0.812562 	 0.766000 	 0.730187 	  
 -2.812783 	 7.929904 	 4.146820 	 0.815125 	 0.768125 	 0.728875 	  
 -3.032862 	 8.508398 	 0.515512 	 0.813188 	 0.765813 	 0.728125 	  
 4.717073 	 7.690961 	 2.291866 	 0.812438 	 0.767813 	 0.730313 	  
 10.203335 	 5.301529 	 0.829911 	 0.815188 	 0.766250 	 0.728250 	  
 9.668857 	 3.691806 	 1.914587 	 0.812625 	 0.765875 	 0.730250 	  
 7.853203 	 3.591198 	 0.083213 	 0.815250 	 0.767813 	 0.729125 	  
 5.141511 	 3.553470 	 2.920664 	 0.813500 	 0.765813 	 0.728313 	  
 3.317997 	 4.811066 	 1.710228 	 0.812438 	 0.767687 	 0.730375 	  
 5.943229 	 7.213074 	 4.979977 	 0.815500 	 0.766250 	 0.728187 	  
 12.294088 	 9.439019 	 6.316173 	 0.812438 	 0.765813 	 0.730313 	  
 15.595278 	 9.967209 	 2.590545 	 0.815250 	 0.768062 	 0.729000 	  
 14.487021 	 9.791146 	 3.620202 	 0.813438 	 0.766062 	 0.728187 	  
 11.547391 	 10.533128 	 1.560889 	 0.812500 	 0.767750 	 0.730437 	  
 8.199041 	 12.105123 	 0.814191 	 0.815250 	 0.766563 	 0.728375 	  
 4.937152 	 11.363141 	 -5.552388 	 0.812625 	 0.766375 	 0.730313 	  
 5.172951 	 7.376562 	 -7.933961 	 0.815250 	 0.768188 	 0.728688 	  
 10.706373 	 4.697883 	 -5.748888 	 0.812875 	 0.766188 	 0.728375 	  
 14.565621 	 3.578622 	 -3.005757 	 0.813000 	 0.768062 	 0.730250 	  
 11.508091 	 2.497090 	 -0.011106 	 0.815250 	 0.766375 	 0.728187 	  
 6.587747 	 2.773761 	 -1.260842 	 0.812438 	 0.766938 	 0.730375 	  
 2.602740 	 4.106812 	 -0.018966 	 0.815250 	 0.768000 	 0.728375 	  
 4.386954 	 7.590353 	 3.848141 	 0.812688 	 0.766125 	 0.728625 	  
 11.405911 	 9.250380 	 4.193980 	 0.813250 	 0.767938 	 0.730437 	  
 17.041513 	 8.483246 	 5.019277 	 0.815125 	 0.766250 	 0.728250 	  
 17.748911 	 7.690961 	 4.775618 	 0.812562 	 0.766625 	 0.730250 	  
 15.469518 	 6.936403 	 3.667362 	 0.815188 	 0.767875 	 0.728563 	  
 10.604194 	 5.917751 	 3.117164 	 0.812937 	 0.766313 	 0.728250 	  
 5.833189 	 5.854871 	 2.739885 	 0.812750 	 0.768125 	 0.730187 	  
 4.088275 	 5.942903 	 1.906727 	 0.815250 	 0.766313 	 0.728437 	  
 7.908222 	 5.351832 	 3.573042 	 0.812562 	 0.766625 	 0.730250 	  
 12.246928 	 4.006205 	 2.111087 	 0.815375 	 0.768125 	 0.728563 	  
 12.199768 	 4.207420 	 1.875288 	 0.812937 	 0.766313 	 0.728313 	  
 8.725660 	 5.351832 	 4.956398 	 0.812438 	 0.768313 	 0.730313 	  
 4.772093 	 5.628504 	 1.348669 	 0.815375 	 0.766687 	 0.728187 	  
 1.958222 	 5.578200 	 3.352963 	 0.812438 	 0.766437 	 0.730187 	  
 2.390520 	 5.766839 	 6.764192 	 0.815188 	 0.768437 	 0.728625 	  
 7.664563 	 5.993206 	 6.992131 	 0.813000 	 0.766563 	 0.728187 	  
 13.653864 	 5.854871 	 5.624495 	 0.812562 	 0.768062 	 0.730125 	  
 15.571698 	 5.892599 	 5.357256 	 0.815250 	 0.766563 	 0.728250 	  
 14.062582 	 6.093814 	 6.127534 	 0.812500 	 0.766000 	 0.730187 	  
 10.981472 	 5.502744 	 2.032487 	 0.815250 	 0.767750 	 0.729125 	  
 4.410534 	 5.075161 	 -0.451265 	 0.813188 	 0.765938 	 0.728187 	  
 1.195804 	 4.458939 	 1.065710 	 0.812625 	 0.767875 	 0.730250 	  
 5.581670 	 4.131964 	 2.331166 	 0.815188 	 0.766188 	 0.728187 	  
 13.331605 	 4.811066 	 3.463002 	 0.812500 	 0.767188 	 0.730313 	  
 15.862517 	 5.666231 	 0.484072 	 0.815250 	 0.767687 	 0.728500 	  
 12.113309 	 6.860948 	 0.704151 	 0.812813 	 0.766000 	 0.728375 	  
 6.430547 	 8.105968 	 -1.787461 	 0.813000 	 0.767875 	 0.730375 	  
 2.343360 	 8.621582 	 0.342592 	 0.815063 	 0.766375 	 0.728313 	  
 5.825329 	 8.684462 	 0.295433 	 0.812625 	 0.767250 	 0.730250 	  
 12.506308 	 8.810221 	 -1.606681 	 0.815188 	 0.767625 	 0.728500 	  
 14.329822 	 9.074316 	 0.389752 	 0.812500 	 0.766250 	 0.729250 	  
 10.557034 	 7.439442 	 1.167890 	 0.814375 	 0.767938 	 0.730187 	  
 5.636690 	 6.911251 	 -0.081846 	 0.814250 	 0.765938 	 0.728250 	  
 2.893559 	 7.716113 	 1.820268 	 0.812375 	 0.767563 	 0.730313 	  
 4.048975 	 7.690961 	 2.166107 	 0.815312 	 0.767188 	 0.728375 	  
 10.085435 	 7.640657 	 2.166107 	 0.812438 	 0.766062 	 0.729938 	  
 15.131539 	 8.797645 	 6.606992 	 0.815125 	 0.768000 	 0.729187 	  
 16.813574 	 9.011437 	 5.365116 	 0.814250 	 0.766188 	 0.728187 	  
 14.636361 	 7.942480 	 3.856001 	 0.812438 	 0.767500 	 0.730375 	  
 7.892502 	 7.112467 	 4.948538 	 0.815312 	 0.767375 	 0.728437 	  
 0.567006 	 7.313682 	 4.508379 	 0.812562 	 0.766313 	 0.729375 	  
 0.394087 	 6.156694 	 2.236846 	 0.814875 	 0.767938 	 0.729812 	  
 6.336227 	 6.508821 	 1.246490 	 0.814125 	 0.766062 	 0.728313 	  
 12.081869 	 6.634580 	 6.111814 	 0.812375 	 0.768062 	 0.730375 	  
 13.716744 	 6.483669 	 6.551972 	 0.815500 	 0.767000 	 0.728375 	  
 10.659213 	 8.458094 	 5.938894 	 0.812562 	 0.765813 	 0.729875 	  
 6.383387 	 9.552203 	 4.335460 	 0.814562 	 0.767938 	 0.729938 	  
 2.249041 	 7.678385 	 6.724892 	 0.814625 	 0.766125 	 0.728187 	  
 3.042898 	 6.332757 	 4.807058 	 0.812438 	 0.767000 	 0.730313 	  
 8.144022 	 7.011859 	 6.096094 	 0.815250 	 0.767563 	 0.728437 	  
 12.561327 	 7.313682 	 6.394773 	 0.812750 	 0.766062 	 0.728625 	  
 14.046863 	 6.370485 	 5.019277 	 0.813688 	 0.767563 	 0.730125 	  
 11.995409 	 6.269877 	 5.380836 	 0.815250 	 0.765938 	 0.728313 	  
 5.699570 	 6.999283 	 3.856001 	 0.812438 	 0.766750 	 0.730313 	  
 0.716346 	 6.131542 	 2.197546 	 0.815375 	 0.767375 	 0.728437 	  
 3.726716 	 5.075161 	 4.563399 	 0.812438 	 0.766188 	 0.729875 	  
 11.177972 	 4.823642 	 6.331893 	 0.815000 	 0.768250 	 0.729625 	  
 13.276585 	 5.641079 	 3.125023 	 0.814000 	 0.766375 	 0.728187 	  
 11.405911 	 5.314105 	 2.181827 	 0.812500 	 0.768250 	 0.730313 	  
 7.216545 	 3.113312 	 3.926741 	 0.815375 	 0.767313 	 0.728375 	  
 3.435897 	 2.710881 	 3.030704 	 0.812813 	 0.766313 	 0.729875 	  
 3.239398 	 4.974554 	 0.114653 	 0.815063 	 0.767938 	 0.729500 	  
 8.120442 	 7.087315 	 -1.087923 	 0.813875 	 0.766188 	 0.728187 	  
 14.659941 	 6.860948 	 -2.337659 	 0.812562 	 0.768062 	 0.730187 	  
 16.672094 	 3.239071 	 -2.895717 	 0.815438 	 0.767188 	 0.728313 	  
 14.825000 	 2.195267 	 -1.921080 	 0.812500 	 0.766000 	 0.729875 	  
 11.508091 	 4.358332 	 -0.459125 	 0.815188 	 0.767750 	 0.729375 	  
 6.351947 	 5.213497 	 2.936384 	 0.813562 	 0.765938 	 0.728187 	  
 4.913572 	 4.647579 	 1.128590 	 0.812375 	 0.768250 	 0.730250 	  
 8.482001 	 5.502744 	 1.930307 	 0.815312 	 0.766875 	 0.728313 	  
 11.366611 	 7.099891 	 3.329383 	 0.812562 	 0.766062 	 0.729938 	  
 10.321235 	 6.533973 	 2.472646 	 0.814937 	 0.768062 	 0.729625 	  
 9.267998 	 5.930327 	 1.207190 	 0.813937 	 0.766500 	 0.728375 	  
 8.002542 	 6.823220 	 2.944244 	 0.812562 	 0.767938 	 0.730250 	  
 4.001815 	 6.445941 	 3.140743 	 0.815375 	 0.767000 	 0.728500 	  
 2.532000 	 6.244726 	 8.886385 	 0.812500 	 0.765938 	 0.729625 	  
 8.277641 	 6.433365 	 7.251510 	 0.814750 	 0.767813 	 0.729938 	  
 14.919320 	 7.162771 	 9.232224 	 0.814625 	 0.765938 	 0.728187 	  
 16.475595 	 8.319759 	 9.672382 	 0.812375 	 0.766875 	 0.730313 	  
 13.095806 	 9.262956 	 5.483016 	 0.815438 	 0.767375 	 0.728500 	  
 6.257628 	 10.482824 	 5.200057 	 0.812875 	 0.765625 	 0.728313 	  
 0.425527 	 11.174502 	 4.264720 	 0.812562 	 0.767563 	 0.730437 	  
 1.085764 	 10.445096 	 0.429052 	 0.815312 	 0.765938 	 0.728313 	  
 7.279424 	 10.243881 	 -0.191886 	 0.812438 	 0.765437 	 0.730313 	  
 12.419848 	 11.086470 	 -4.184753 	 0.815188 	 0.767563 	 0.729063 	  
 13.040786 	 11.841027 	 -5.827488 	 0.813438 	 0.765625 	 0.728187 	  
 9.212978 	 9.891754 	 -8.476299 	 0.812438 	 0.767437 	 0.730250 	  
 2.956438 	 8.181423 	 -2.400539 	 0.815125 	 0.766062 	 0.728313 	  
 -0.517670 	 8.143695 	 -0.899283 	 0.812500 	 0.766500 	 0.730250 	  
 3.718856 	 7.401714 	 2.928524 	 0.815438 	 0.767563 	 0.728500 	  
 12.113309 	 6.257301 	 1.663068 	 0.812688 	 0.765875 	 0.729063 	  
 16.444155 	 6.043510 	 2.221126 	 0.814438 	 0.767938 	 0.729938 	  
 14.990059 	 6.571700 	 1.262210 	 0.814500 	 0.766250 	 0.728125 	  
 11.602410 	 7.338834 	 2.834204 	 0.812438 	 0.767313 	 0.730375 	  
 6.532727 	 6.584276 	 -0.097566 	 0.815375 	 0.767500 	 0.728437 	  
 4.646333 	 4.534395 	 -0.231186 	 0.812688 	 0.766000 	 0.729250 	  
 9.739596 	 3.176191 	 0.146093 	 0.814562 	 0.767750 	 0.730063 	  
 15.430218 	 2.698305 	 -0.970023 	 0.814500 	 0.765938 	 0.728313 	  
 17.458091 	 3.603774 	 1.002830 	 0.812625 	 0.767313 	 0.730187 	  
 16.475595 	 4.270300 	 0.963530 	 0.815438 	 0.767188 	 0.728375 	  
 12.278368 	 3.716958 	 -0.396245 	 0.812438 	 0.765875 	 0.729187 	  
 7.027905 	 2.308450 	 3.062144 	 0.814750 	 0.767938 	 0.729938 	  
 5.377311 	 1.943747 	 4.241140 	 0.814312 	 0.765813 	 0.728375 	  
 12.097589 	 3.314527 	 7.448009 	 0.812312 	 0.767375 	 0.730500 	  
 18.306969 	 4.345756 	 7.094311 	 0.815188 	 0.767000 	 0.728250 	  
 19.140126 	 4.635003 	 9.098604 	 0.812750 	 0.766188 	 0.728812 	  
 16.624934 	 6.156694 	 6.882091 	 0.813500 	 0.768000 	 0.730250 	  
 12.655647 	 8.030512 	 4.571259 	 0.815188 	 0.766062 	 0.728250 	  
 7.177245 	 7.728689 	 5.789555 	 0.812562 	 0.766250 	 0.730187 	  
 4.237614 	 5.590776 	 3.879581 	 0.815250 	 0.767625 	 0.728625 	  
 6.878566 	 4.119388 	 4.862078 	 0.812750 	 0.765875 	 0.728437 	  
 12.105449 	 4.672731 	 4.374759 	 0.812937 	 0.767563 	 0.730250 	  
 13.017206 	 6.345333 	 2.087507 	 0.815250 	 0.765750 	 0.728313 	  
 8.340521 	 7.162771 	 0.877071 	 0.812375 	 0.765750 	 0.730313 	  
 2.516280 	 5.427288 	 1.498009 	 0.815250 	 0.767813 	 0.728812 	  
 -1.075729 	 5.012282 	 2.236846 	 0.812937 	 0.765625 	 0.728250 	  
 1.635963 	 5.880023 	 1.780968 	 0.813562 	 0.767750 	 0.730375 	  
 7.169385 	 6.056086 	 1.545169 	 0.815188 	 0.765938 	 0.728313 	  
 10.580614 	 4.647579 	 5.247217 	 0.812500 	 0.766313 	 0.730250 	  
 9.645277 	 4.496667 	 6.166834 	 0.815188 	 0.767500 	 0.728625 	  
 7.774603 	 6.923827 	 9.059304 	 0.812688 	 0.765750 	 0.728625 	  
 4.646333 	 9.212652 	 5.703095 	 0.813312 	 0.767750 	 0.730313 	  
 1.274404 	 9.891754 	 2.739885 	 0.815125 	 0.766188 	 0.728500 	  
 4.591313 	 9.300684 	 2.370466 	 0.812625 	 0.767062 	 0.730313 	  
 12.396268 	 8.646734 	 1.521589 	 0.815562 	 0.766750 	 0.728375 	  
 15.988276 	 9.652810 	 5.160757 	 0.812562 	 0.765563 	 0.730125 	  
 14.164762 	 10.231305 	 6.819212 	 0.814875 	 0.767687 	 0.729938 	  
 10.085435 	 10.834951 	 6.363333 	 0.814688 	 0.765750 	 0.728187 	  
 6.249768 	 10.822375 	 5.813135 	 0.812438 	 0.766437 	 0.730313 	  
 3.718856 	 10.294184 	 5.294376 	 0.815312 	 0.767125 	 0.728625 	  
 7.908222 	 9.262956 	 6.363333 	 0.813063 	 0.765188 	 0.728187 	  
 14.809280 	 5.968054 	 5.223637 	 0.812500 	 0.767125 	 0.730437 	  
 18.039730 	 5.326680 	 1.835988 	 0.815312 	 0.765687 	 0.728313 	  
 15.100099 	 7.112467 	 0.924231 	 0.812625 	 0.765062 	 0.730250 	  
 10.423414 	 6.710036 	 0.130373 	 0.815125 	 0.766938 	 0.729125 	  
 4.190454 	 4.685307 	 -0.388385 	 0.813375 	 0.765125 	 0.728250 	  
 3.640256 	 5.452440 	 -0.718504 	 0.812562 	 0.767000 	 0.730250 	  
 8.749240 	 6.370485 	 1.843848 	 0.815438 	 0.765875 	 0.728313 	  
 11.633850 	 5.779415 	 -2.376959 	 0.812562 	 0.765125 	 0.730250 	  
 10.769253 	 4.899098 	 -2.290499 	 0.815312 	 0.767313 	 0.729000 	  
 6.524867 	 5.301529 	 -0.239046 	 0.813375 	 0.765062 	 0.728187 	  
 0.456967 	 5.968054 	 0.161813 	 0.812500 	 0.767125 	 0.730437 	  
 -3.724540 	 5.804567 	 1.537309 	 0.815375 	 0.765938 	 0.728375 	  
 -1.539467 	 5.326680 	 -0.522005 	 0.812750 	 0.765250 	 0.730313 	  
 4.253334 	 4.509243 	 -1.504502 	 0.815312 	 0.767250 	 0.729125 	  
 9.385898 	 4.697883 	 6.088234 	 0.813312 	 0.765437 	 0.728250 	  
 11.091512 	 5.817143 	 3.156463 	 0.812625 	 0.767062 	 0.730313 	  
 7.923942 	 7.162771 	 6.536252 	 0.815250 	 0.766188 	 0.728437 	  
 2.272621 	 8.370063 	 2.826344 	 0.812500 	 0.765437 	 0.729625 	  
 -0.698450 	 8.407791 	 5.852435 	 0.815125 	 0.767000 	 0.729500 	  
 4.143295 	 9.350987 	 4.343320 	 0.813875 	 0.765000 	 0.728125 	  
 13.017206 	 11.099046 	 3.305803 	 0.812438 	 0.766500 	 0.730250 	  
 16.601354 	 11.803300 	 0.767031 	 0.815438 	 0.766625 	 0.728313 	  
 12.435568 	 11.627236 	 -3.139376 	 0.812625 	 0.765313 	 0.729375 	  
 7.365884 	 10.042665 	 -5.379469 	 0.814875 	 0.767437 	 0.729750 	  
 5.086492 	 8.785069 	 0.460492 	 0.813937 	 0.765563 	 0.728250 	  
 7.735303 	 8.206575 	 1.608048 	 0.812625 	 0.767250 	 0.730375 	  
 13.087946 	 9.501899 	 4.241140 	 0.815438 	 0.766000 	 0.728500 	  
 17.811790 	 11.878755 	 5.160757 	 0.812688 	 0.765563 	 0.730313 	  
 18.196929 	 11.463749 	 3.423703 	 0.815438 	 0.767437 	 0.728875 	  
 13.425925 	 10.495400 	 5.027137 	 0.813375 	 0.765437 	 0.728375 	  
 7.114365 	 9.564779 	 5.152897 	 0.812562 	 0.767313 	 0.730375 	  
 1.816742 	 7.313682 	 3.172183 	 0.815500 	 0.766000 	 0.728250 	  
 1.730282 	 5.125465 	 4.673438 	 0.812562 	 0.765563 	 0.730250 	  
 8.725660 	 4.056509 	 1.065710 	 0.815125 	 0.767625 	 0.729313 	  
 15.933256 	 4.899098 	 3.769541 	 0.813937 	 0.765563 	 0.728187 	  
 16.396995 	 5.578200 	 0.892791 	 0.812500 	 0.767188 	 0.730375 	  
 13.724604 	 5.087737 	 7.322250 	 0.815250 	 0.766125 	 0.728313 	  
 11.751750 	 5.062585 	 5.632355 	 0.812625 	 0.765250 	 0.729375 	  
 9.936096 	 7.213074 	 4.539819 	 0.814438 	 0.767062 	 0.730063 	  
 10.179755 	 9.979785 	 0.594112 	 0.814562 	 0.765437 	 0.728375 	  
 14.864300 	 9.715690 	 2.566965 	 0.812500 	 0.766375 	 0.730313 	  
 17.442372 	 7.690961 	 3.824561 	 0.815312 	 0.766437 	 0.728500 	  
 14.439861 	 6.232150 	 1.042130 	 0.812688 	 0.765188 	 0.728875 	  
 8.434841 	 5.892599 	 1.529449 	 0.814250 	 0.767375 	 0.730313 	  
 1.329424 	 5.980630 	 3.431562 	 0.814688 	 0.765250 	 0.728313 	  
 -0.729890 	 5.766839 	 4.752038 	 0.812438 	 0.766563 	 0.730437 	  
 5.605250 	 5.226073 	 1.395829 	 0.815500 	 0.766938 	 0.728437 	  
 13.889663 	 6.332757 	 1.985327 	 0.812750 	 0.765000 	 0.728500 	  
 16.176916 	 6.810644 	 4.209700 	 0.813125 	 0.766875 	 0.730375 	  
 15.052939 	 5.502744 	 5.931034 	 0.815438 	 0.765437 	 0.728250 	  
 12.474868 	 4.584699 	 4.508379 	 0.812688 	 0.765437 	 0.730250 	  
 6.666346 	 3.981053 	 1.985327 	 0.815250 	 0.767000 	 0.728563 	  
 -0.069652 	 4.471515 	 3.093584 	 0.812937 	 0.765125 	 0.728250 	  
 0.236887 	 6.320181 	 3.030704 	 0.812813 	 0.766938 	 0.730375 	  
 4.119715 	 7.829296 	 1.702368 	 0.815438 	 0.765500 	 0.728187 	  
 6.737086 	 9.074316 	 4.594839 	 0.812375 	 0.765375 	 0.730313 	  
 6.422687 	 9.464171 	 4.036781 	 0.815375 	 0.767125 	 0.728750 	  
 4.473414 	 9.024013 	 2.480506 	 0.812688 	 0.765375 	 0.728500 	  
 0.244747 	 8.118543 	 1.537309 	 0.814000 	 0.767750 	 0.730250 	  
 -1.264368 	 6.232150 	 3.777401 	 0.815000 	 0.765563 	 0.728250 	  
 4.544153 	 3.804989 	 2.559105 	 0.812625 	 0.766813 	 0.730313 	  
 10.439134 	 2.685729 	 7.259370 	 0.815500 	 0.766687 	 0.728563 	  
 12.168329 	 4.622427 	 3.423703 	 0.812625 	 0.765563 	 0.729063 	  
 11.500231 	 5.842295 	 -0.797104 	 0.814438 	 0.767563 	 0.730063 	  
 6.988605 	 6.307605 	 2.842064 	 0.814312 	 0.765375 	 0.728375 	  
 2.083981 	 7.854448 	 1.780968 	 0.812625 	 0.766750 	 0.730313 	  
 2.704919 	 8.181423 	 4.296160 	 0.815438 	 0.766750 	 0.728375 	  
 9.032199 	 7.074739 	 7.290810 	 0.812688 	 0.765375 	 0.728688 	  
 12.781407 	 6.823220 	 8.823505 	 0.813125 	 0.767313 	 0.730375 	  
 13.944683 	 6.684884 	 5.907454 	 0.815500 	 0.765563 	 0.728250 	  
 13.622424 	 6.295029 	 5.388696 	 0.812438 	 0.765437 	 0.730250 	  
 9.385898 	 5.465016 	 6.158974 	 0.815125 	 0.767125 	 0.728875 	  
 3.168658 	 4.899098 	 5.734535 	 0.813438 	 0.765062 	 0.728187 	  
 3.545937 	 4.584699 	 6.834931 	 0.812438 	 0.767125 	 0.730375 	  
 11.209412 	 4.723034 	 3.565182 	 0.815375 	 0.766000 	 0.728375 	  
 16.114036 	 5.314105 	 -0.561305 	 0.812750 	 0.765062 	 0.730063 	  
 15.162979 	 5.263801 	 -6.361966 	 0.815375 	 0.767062 	 0.729375 	  
 12.097589 	 5.565624 	 -5.222269 	 0.813562 	 0.765375 	 0.728313 	  
 9.550957 	 5.326680 	 -1.983960 	 0.812562 	 0.767313 	 0.730313 	  
 6.493427 	 3.968477 	 -3.257276 	 0.815438 	 0.765938 	 0.728250 	  
 5.927509 	 3.201343 	 -0.883564 	 0.812500 	 0.765000 	 0.730125 	  
 8.812119 	 4.119388 	 2.456926 	 0.815063 	 0.766875 	 0.729500 	  
 11.963969 	 6.596852 	 4.531959 	 0.814500 	 0.765062 	 0.728187 	  
 12.655647 	 8.395215 	 2.346886 	 0.812438 	 0.766375 	 0.730313 	  
 8.914299 	 8.910829 	 6.410493 	 0.815250 	 0.766375 	 0.728500 	  
 3.522357 	 8.193999 	 4.162540 	 0.812688 	 0.765000 	 0.728500 	  
 3.058618 	 8.357487 	 -0.294065 	 0.813250 	 0.766938 	 0.730313 	  
 8.890719 	 10.092969 	 -2.872137 	 0.814875 	 0.765188 	 0.728187 	  
 13.370905 	 10.243881 	 2.166107 	 0.812500 	 0.766250 	 0.730250 	  
 12.938606 	 7.062163 	 0.594112 	 0.815250 	 0.766813 	 0.728313 	  
 10.667073 	 6.873523 	 4.539819 	 0.812500 	 0.765250 	 0.729375 	  
 9.063639 	 8.319759 	 5.380836 	 0.814312 	 0.767500 	 0.730063 	  
 6.823546 	 9.854026 	 1.835988 	 0.814875 	 0.765563 	 0.728250 	  
 6.501287 	 10.545704 	 4.877798 	 0.812375 	 0.767000 	 0.730437 	  
 10.321235 	 10.243881 	 6.308313 	 0.815375 	 0.766375 	 0.728313 	  
 13.402345 	 9.288108 	 7.982488 	 0.812562 	 0.765375 	 0.729187 	  
 15.249439 	 8.772493 	 8.218287 	 0.813250 	 0.767437 	 0.730375 	  
 13.614564 	 8.923405 	 5.372976 	 0.815188 	 0.765750 	 0.728313 	  
 8.882859 	 9.627659 	 -0.482705 	 0.812562 	 0.765813 	 0.730250 	  
 2.932859 	 9.112044 	 -1.834620 	 0.815250 	 0.767125 	 0.728563 	  
 1.038605 	 4.848794 	 -4.821411 	 0.812688 	 0.765375 	 0.728437 	  
 4.402674 	 -0.558868 	 -6.149746 	 0.813375 	 0.767250 	 0.730313 	  
 8.293361 	 -0.734932 	 -3.351596 	 0.814750 	 0.765313 	 0.728250 	  
 11.390191 	 2.333602 	 -0.419825 	 0.812375 	 0.766563 	 0.730250 	  
 11.390191 	 4.534395 	 1.482289 	 0.815312 	 0.766687 	 0.728313 	  
 7.507364 	 4.848794 	 2.394046 	 0.812500 	 0.765500 	 0.729125 	  
 3.373017 	 4.936826 	 0.837771 	 0.813562 	 0.767500 	 0.730313 	  
 4.685633 	 5.276377 	 1.851708 	 0.815250 	 0.765500 	 0.728187 	  
 13.182265 	 6.307605 	 2.787045 	 0.812500 	 0.766125 	 0.730250 	  
 19.580285 	 7.250802 	 4.201840 	 0.815188 	 0.767500 	 0.728563 	  
 18.982927 	 7.024435 	 4.429779 	 0.812625 	 0.765813 	 0.728500 	  
 13.308025 	 6.458517 	 0.083213 	 0.813813 	 0.767750 	 0.730187 	  
 6.351947 	 6.898675 	 4.319740 	 0.814937 	 0.765625 	 0.728313 	  
 3.545937 	 7.753841 	 5.294376 	 0.812562 	 0.766500 	 0.730250 	  
 7.035765 	 8.231727 	 7.212210 	 0.815312 	 0.767500 	 0.728375 	  
 12.820706 	 9.451595 	 7.424430 	 0.812750 	 0.765563 	 0.728375 	  
 14.549901 	 9.627659 	 7.683809 	 0.812750 	 0.767625 	 0.730375 	  
 10.729953 	 9.174924 	 6.261153 	 0.815438 	 0.766000 	 0.728187 	  
 6.454127 	 9.036588 	 6.740612 	 0.812375 	 0.765687 	 0.730125 	  
 2.335500 	 7.804144 	 7.817428 	 0.815312 	 0.767313 	 0.728812 	  
 1.463043 	 6.219574 	 5.113597 	 0.813063 	 0.765313 	 0.728125 	  
 6.556307 	 5.062585 	 3.753821 	 0.812438 	 0.767437 	 0.730250 	  
 10.714233 	 4.232572 	 8.178987 	 0.815125 	 0.766188 	 0.728250 	  
 12.726387 	 6.118966 	 2.197546 	 0.812625 	 0.765687 	 0.730250 	  
 11.405911 	 6.584276 	 -0.569165 	 0.815375 	 0.767813 	 0.728750 	  
 6.131868 	 6.445941 	 -1.630261 	 0.812750 	 0.765938 	 0.728437 	  
 1.070045 	 5.930327 	 1.073570 	 0.814000 	 0.767938 	 0.730250 	  
 1.973942 	 5.112889 	 0.562672 	 0.814188 	 0.765813 	 0.728250 	  
 9.464497 	 5.653655 	 1.466569 	 0.812438 	 0.767687 	 0.730375 	  
 15.485238 	 5.892599 	 5.655935 	 0.815438 	 0.766563 	 0.728313 	  
 16.019716 	 5.100313 	 2.441206 	 0.812562 	 0.765750 	 0.729812 	  
 12.977906 	 4.106812 	 2.669145 	 0.814937 	 0.767750 	 0.729750 	  
 6.980745 	 3.779838 	 2.496226 	 0.813750 	 0.765875 	 0.728187 	  
 2.123281 	 3.566046 	 2.063927 	 0.812500 	 0.767750 	 0.730250 	  
 4.732793 	 3.817565 	 4.107520 	 0.815188 	 0.766687 	 0.728437 	  
 13.449504 	 5.364408 	 4.917098 	 0.812500 	 0.766000 	 0.730063 	  
 18.723547 	 6.395637 	 3.863861 	 0.815312 	 0.767750 	 0.729375 	  
 18.079029 	 7.313682 	 4.885658 	 0.814000 	 0.765875 	 0.728250 	  
 15.123679 	 8.370063 	 4.649859 	 0.812438 	 0.766875 	 0.730313 	  
 8.489861 	 8.269455 	 5.805275 	 0.815438 	 0.767188 	 0.728375 	  
 3.396597 	 7.288530 	 4.146820 	 0.812562 	 0.765500 	 0.728750 	  
 5.204391 	 5.075161 	 6.213993 	 0.813438 	 0.767687 	 0.730375 	  
 11.060072 	 3.402559 	 6.434073 	 0.815375 	 0.765625 	 0.728187 	  
 16.334115 	 3.792413 	 4.712738 	 0.812500 	 0.766000 	 0.730187 	  
 17.206572 	 4.383484 	 2.488366 	 0.815250 	 0.767250 	 0.728688 	  
 14.235502 	 6.232150 	 5.978194 	 0.812937 	 0.765250 	 0.728250 	  
 7.868923 	 8.093392 	 5.192197 	 0.812562 	 0.767250 	 0.730250 	  
 1.046465 	 8.546126 	 2.873504 	 0.815312 	 0.765875 	 0.728375 	  
 2.209741 	 10.067817 	 2.409766 	 0.812438 	 0.765437 	 0.730187 	  
 9.165818 	 10.369640 	 -2.628478 	 0.815375 	 0.767625 	 0.729000 	  
 11.311591 	 10.067817 	 -3.052917 	 0.813312 	 0.765563 	 0.728250 	  
 6.823546 	 9.677962 	 -2.644198 	 0.812312 	 0.767687 	 0.730313 	  
 0.339067 	 8.810221 	 -6.079007 	 0.815500 	 0.766062 	 0.728250 	  
 -2.121105 	 6.056086 	 -1.245122 	 0.812375 	 0.765500 	 0.730250 	  
 0.936425 	 2.849217 	 -1.221542 	 0.815125 	 0.767500 	 0.729063 	  
 8.277641 	 2.534818 	 1.049990 	 0.813188 	 0.765437 	 0.728063 	  
 12.765687 	 5.565624 	 0.908511 	 0.812375 	 0.767500 	 0.730375 	  
 12.797127 	 9.074316 	 -0.278345 	 0.815250 	 0.765813 	 0.728313 	  
 9.558817 	 10.671463 	 -1.048623 	 0.812500 	 0.766062 	 0.730313 	  
 3.451617 	 9.891754 	 1.560889 	 0.815312 	 0.767188 	 0.728437 	  
 -0.745610 	 8.483246 	 0.829911 	 0.812438 	 0.766000 	 0.729500 	  
 1.604523 	 6.974131 	 0.114653 	 0.814625 	 0.767687 	 0.730125 	  
 8.647060 	 6.395637 	 1.875288 	 0.814562 	 0.765687 	 0.728187 	  
 14.644221 	 6.823220 	 0.924231 	 0.812375 	 0.767000 	 0.730313 	  
 13.983983 	 6.508821 	 1.930307 	 0.815375 	 0.767188 	 0.728375 	  
 9.605977 	 6.622004 	 2.959964 	 0.812688 	 0.765750 	 0.728938 	  
 4.434114 	 6.710036 	 2.213266 	 0.814438 	 0.767750 	 0.730000 	  
 1.109344 	 7.099891 	 -0.404105 	 0.814250 	 0.765875 	 0.728250 	  
 5.314431 	 6.634580 	 1.584468 	 0.812625 	 0.767313 	 0.730250 	  
 14.141182 	 6.370485 	 5.082157 	 0.815312 	 0.766938 	 0.728500 	  
 18.849307 	 8.080816 	 4.932818 	 0.812438 	 0.765500 	 0.729125 	  
 19.305185 	 10.772071 	 4.492659 	 0.814375 	 0.767625 	 0.730063 	  
 14.439861 	 12.972864 	 5.907454 	 0.815063 	 0.765813 	 0.728250 	  
 6.037548 	 13.463326 	 6.921391 	 0.812375 	 0.766375 	 0.730313 	  
 0.857825 	 13.727421 	 7.416570 	 0.815500 	 0.767875 	 0.728625 	  
 5.675990 	 13.136351 	 6.551972 	 0.812937 	 0.765687 	 0.728250 	  
 13.182265 	 11.903907 	 3.352963 	 0.812500 	 0.767750 	 0.730437 	  
 13.701024 	 10.243881 	 2.802765 	 0.815438 	 0.766000 	 0.728250 	  
 9.826056 	 10.042665 	 4.327600 	 0.812500 	 0.765750 	 0.730250 	  
 5.738869 	 9.489323 	 2.189687 	 0.815250 	 0.767687 	 0.729187 	  
 0.614166 	 8.973709 	 4.296160 	 0.813375 	 0.765500 	 0.728125 	  
 -0.674870 	 7.602929 	 4.869938 	 0.812500 	 0.767375 	 0.730313 	  
 6.226188 	 5.251225 	 3.848141 	 0.815375 	 0.766062 	 0.728375 	  
 15.005779 	 6.018358 	 5.050717 	 0.812562 	 0.765750 	 0.730125 	  
 17.088673 	 7.804144 	 3.007124 	 0.815250 	 0.767500 	 0.729313 	  
 13.142965 	 8.030512 	 4.374759 	 0.813875 	 0.765500 	 0.728187 	  
 6.839266 	 7.615505 	 3.753821 	 0.812438 	 0.767250 	 0.730250 	  
 2.241181 	 6.923827 	 1.105010 	 0.815375 	 0.766437 	 0.728125 	  
 3.600956 	 7.137619 	 2.967824 	 0.812562 	 0.765437 	 0.728875 	  
 11.421631 	 8.143695 	 1.914587 	 0.814375 	 0.767313 	 0.730063 	  
 17.513111 	 8.697038 	 2.001047 	 0.814375 	 0.765437 	 0.728313 	  
 18.393428 	 9.288108 	 2.158247 	 0.812500 	 0.767375 	 0.730250 	  
 14.196202 	 8.520974 	 2.386186 	 0.815312 	 0.767125 	 0.728500 	  
 9.637417 	 7.439442 	 1.529449 	 0.812625 	 0.766000 	 0.729688 	  
 6.029688 	 5.389560 	 2.645565 	 0.815250 	 0.767813 	 0.729500 	  
 6.351947 	 4.358332 	 1.843848 	 0.813875 	 0.766000 	 0.728375 	  
 10.981472 	 3.993629 	 4.854218 	 0.812562 	 0.767375 	 0.730250 	  
 15.021499 	 3.804989 	 7.762408 	 0.815438 	 0.767563 	 0.728500 	  
 15.390918 	 4.408635 	 7.487309 	 0.812750 	 0.765813 	 0.728437 	  
 11.272292 	 3.804989 	 4.767758 	 0.812813 	 0.767875 	 0.730437 	  
 3.938935 	 2.132387 	 2.103227 	 0.815375 	 0.766250 	 0.728250 	  
 1.211524 	 3.037856 	 1.474429 	 0.812438 	 0.765875 	 0.730250 	  
 6.807826 	 4.609851 	 -1.103643 	 0.815188 	 0.767813 	 0.729063 	  
 14.604921 	 5.276377 	 -0.883564 	 0.813312 	 0.765813 	 0.728187 	  
 16.797854 	 4.572123 	 -1.017183 	 0.812375 	 0.767687 	 0.730437 	  
 13.048646 	 4.131964 	 -3.540235 	 0.815188 	 0.766500 	 0.728375 	  
 7.703863 	 3.012704 	 -2.141159 	 0.812625 	 0.765875 	 0.730187 	  
 4.206174 	 0.459784 	 -3.886074 	 0.815250 	 0.767625 	 0.729125 	  
 4.889992 	 -0.609172 	 -6.306946 	 0.813438 	 0.765563 	 0.728250 	  
 12.529887 	 0.510088 	 -4.043273 	 0.812562 	 0.767687 	 0.730313 	  
 18.189069 	 1.579045 	 -1.520221 	 0.815500 	 0.766375 	 0.728313 	  
 13.009346 	 2.660577 	 1.387969 	 0.812562 	 0.765875 	 0.730375 	  
 5.369451 	 3.930749 	 -0.309785 	 0.815375 	 0.767813 	 0.729125 	  
 -0.132532 	 4.710458 	 2.834204 	 0.813438 	 0.765813 	 0.728250 	  
 -1.822426 	 4.861370 	 4.288300 	 0.812438 	 0.767563 	 0.730375 	  
 0.260467 	 5.741687 	 3.848141 	 0.815375 	 0.766375 	 0.728250 	  
 8.426981 	 7.640657 	 -0.514145 	 0.812625 	 0.765625 	 0.729750 	  
 13.284445 	 7.816720 	 0.342592 	 0.815125 	 0.767625 	 0.729437 	  
 9.283718 	 6.948979 	 2.142527 	 0.813500 	 0.766125 	 0.728187 	  
 2.917139 	 6.860948 	 4.288300 	 0.812500 	 0.767750 	 0.730250 	  
 -2.325464 	 7.363986 	 5.852435 	 0.815188 	 0.766375 	 0.728313 	  
 -4.667737 	 7.980208 	 8.438366 	 0.812375 	 0.765813 	 0.730063 	  
 -0.014632 	 7.942480 	 7.212210 	 0.815250 	 0.767687 	 0.729375 	  
 9.008619 	 7.967632 	 6.662012 	 0.813813 	 0.765875 	 0.728187 	  
 14.911460 	 8.835373 	 8.084667 	 0.812562 	 0.767813 	 0.730437 	  
 15.563838 	 9.288108 	 5.679515 	 0.815562 	 0.766625 	 0.728250 	  
 11.751750 	 9.099468 	 3.973901 	 0.812500 	 0.765938 	 0.730250 	  
 5.707430 	 8.093392 	 3.227203 	 0.815188 	 0.767938 	 0.729187 	  
 0.873545 	 8.030512 	 2.134667 	 0.813562 	 0.766125 	 0.728187 	  
 2.980018 	 10.042665 	 3.329383 	 0.812625 	 0.767938 	 0.730437 	  
 11.901089 	 11.023590 	 4.359039 	 0.815375 	 0.766625 	 0.728437 	  
 19.454525 	 8.646734 	 5.923174 	 0.812625 	 0.765875 	 0.730187 	  
 19.658884 	 6.307605 	 4.594839 	 0.815250 	 0.767313 	 0.729437 	  
 14.133322 	 5.980630 	 2.008907 	 0.813875 	 0.765687 	 0.728375 	  
 8.937879 	 7.426866 	 3.077864 	 0.812625 	 0.767563 	 0.730313 	  
 7.884642 	 9.627659 	 1.458709 	 0.815375 	 0.766563 	 0.728375 	  
 10.965752 	 10.419944 	 3.612342 	 0.812500 	 0.765563 	 0.729812 	  
 14.196202 	 8.923405 	 4.767758 	 0.815000 	 0.767437 	 0.729563 	  
 13.559544 	 8.055664 	 2.763465 	 0.814000 	 0.765437 	 0.728250 	  
 11.767470 	 7.892176 	 5.734535 	 0.812438 	 0.766687 	 0.730437 	  
 7.923942 	 6.169270 	 4.162540 	 0.815188 	 0.767687 	 0.728563 	  
 0.967865 	 4.144540 	 4.909238 	 0.812875 	 0.766000 	 0.728437 	  
 -2.168265 	 5.238649 	 3.848141 	 0.813188 	 0.767500 	 0.730437 	  
 2.689199 	 7.577777 	 5.954614 	 0.815250 	 0.766000 	 0.728375 	  
 9.983256 	 8.156271 	 5.490876 	 0.812688 	 0.765750 	 0.730250 	  
 14.369121 	 7.565201 	 5.506596 	 0.815438 	 0.767813 	 0.728812 	  
 11.445211 	 6.395637 	 2.677005 	 0.813063 	 0.765750 	 0.728375 	  
 5.534510 	 6.533973 	 1.851708 	 0.812625 	 0.767687 	 0.730375 	  
 1.793162 	 7.326258 	 -0.804964 	 0.815438 	 0.766250 	 0.728187 	  
 4.827112 	 8.432942 	 1.128590 	 0.812500 	 0.765500 	 0.730125 	  
 13.425925 	 8.583854 	 2.677005 	 0.815125 	 0.767375 	 0.729313 	  
 16.994353 	 8.105968 	 -0.034686 	 0.813813 	 0.765625 	 0.728250 	  
 15.681737 	 8.269455 	 1.419409 	 0.812312 	 0.767313 	 0.730437 	  
 12.294088 	 9.011437 	 2.409766 	 0.815375 	 0.766313 	 0.728250 	  
 7.043625 	 9.740842 	 -0.632044 	 0.812688 	 0.765375 	 0.729625 	  
 4.261194 	 9.690538 	 -1.638121 	 0.814688 	 0.767250 	 0.729938 	  
 7.232265 	 9.262956 	 -1.056483 	 0.814188 	 0.765437 	 0.728375 	  
 13.190125 	 7.225650 	 2.732025 	 0.812625 	 0.767437 	 0.730437 	  
 15.029359 	 4.496667 	 1.867428 	 0.815375 	 0.766375 	 0.728375 	  
 12.388408 	 3.251647 	 0.263993 	 0.812562 	 0.766125 	 0.730313 	  
 10.376254 	 2.031779 	 3.777401 	 0.815438 	 0.767875 	 0.728875 	  
 7.672423 	 1.025702 	 0.829911 	 0.813438 	 0.765813 	 0.728250 	  
 4.685633 	 0.887367 	 0.098933 	 0.812438 	 0.767687 	 0.730375 	  
 8.309081 	 2.434210 	 3.549462 	 0.815562 	 0.766188 	 0.728250 	  
 17.065093 	 5.238649 	 7.007851 	 0.812625 	 0.765750 	 0.730187 	  
 21.230879 	 6.810644 	 3.706662 	 0.815312 	 0.767813 	 0.729125 	  
 17.277312 	 6.584276 	 3.840281 	 0.813625 	 0.765750 	 0.728313 	  
 11.539531 	 5.339256 	 5.876015 	 0.812500 	 0.767625 	 0.730375 	  
 6.619187 	 3.465439 	 3.848141 	 0.815250 	 0.766563 	 0.728500 	  
 5.565950 	 3.377407 	 2.252566 	 0.812500 	 0.765813 	 0.730063 	  
 9.904656 	 3.503166 	 2.307586 	 0.815375 	 0.767437 	 0.729250 	  
 14.597061 	 4.496667 	 2.582685 	 0.813813 	 0.765750 	 0.728313 	  
 17.057233 	 5.075161 	 -1.268702 	 0.812375 	 0.767563 	 0.730375 	  
 12.749967 	 3.968477 	 -1.999680 	 0.815438 	 0.766375 	 0.728375 	  
 5.432330 	 3.314527 	 -0.372665 	 0.812562 	 0.765687 	 0.730125 	  
 -0.101092 	 3.264223 	 -0.859984 	 0.815250 	 0.767875 	 0.729187 	  
 0.236887 	 4.094236 	 0.421192 	 0.813688 	 0.766062 	 0.728250 	  
 6.910006 	 6.584276 	 4.516239 	 0.812500 	 0.767563 	 0.730375 	  
 12.828566 	 8.445518 	 4.877798 	 0.815375 	 0.766437 	 0.728437 	  
 13.323745 	 8.370063 	 2.677005 	 0.812688 	 0.765563 	 0.730063 	  
 9.173678 	 8.307183 	 4.044641 	 0.814875 	 0.767687 	 0.729875 	  
 3.915355 	 9.816298 	 6.041074 	 0.814312 	 0.765563 	 0.728313 	  
 1.242964 	 11.224805 	 7.966768 	 0.812562 	 0.767000 	 0.730313 	  
 2.563440 	 11.199653 	 3.415843 	 0.815375 	 0.767250 	 0.728500 	  
 6.689926 	 10.269032 	 -1.811041 	 0.812750 	 0.765375 	 0.728500 	  
 9.173678 	 8.860525 	 -1.245122 	 0.813562 	 0.767563 	 0.730313 	  
 7.916082 	 9.112044 	 2.559105 	 0.815250 	 0.765687 	 0.728187 	  
 3.742436 	 10.998438 	 3.643782 	 0.812438 	 0.766188 	 0.730313 	  
 -1.688807 	 11.011014 	 3.973901 	 0.815250 	 0.767188 	 0.728437 	  
 -5.665954 	 10.269032 	 -1.174383 	 0.812750 	 0.765500 	 0.728437 	  
 -1.154328 	 8.697038 	 1.160030 	 0.813312 	 0.767625 	 0.730437 	  
 7.947522 	 7.087315 	 1.702368 	 0.814125 	 0.765750 	 0.728313 	  
 12.404128 	 4.886522 	 0.987110 	 0.812750 	 0.767750 	 0.730313 	  
 12.427708 	 2.736033 	 1.112870 	 0.815500 	 0.766313 	 0.728375 	  
 10.667073 	 3.138464 	 3.172183 	 0.812750 	 0.765813 	 0.730187 	  
 8.914299 	 3.943325 	 0.554812 	 0.815375 	 0.767563 	 0.729125 	  
 7.578103 	 3.830141 	 2.991404 	 0.813438 	 0.765563 	 0.728313 	  
 9.323018 	 3.817565 	 2.386186 	 0.812438 	 0.767625 	 0.730500 	  
 13.968263 	 6.320181 	 3.132883 	 0.815562 	 0.766188 	 0.728250 	  
 17.623151 	 8.847949 	 4.539819 	 0.812500 	 0.765563 	 0.730187 	  
 15.273019 	 8.068240 	 4.901378 	 0.815250 	 0.767563 	 0.729000 	  
 8.261921 	 6.571700 	 3.588762 	 0.813562 	 0.765687 	 0.728187 	  
 3.522357 	 6.810644 	 2.983544 	 0.812438 	 0.767437 	 0.730313 	  
 3.003598 	 9.049164 	 1.631628 	 0.815375 	 0.766250 	 0.728375 	  
 7.703863 	 11.639812 	 2.142527 	 0.812562 	 0.765625 	 0.730187 	  
 13.213705 	 12.545281 	 6.143254 	 0.815312 	 0.767375 	 0.729187 	  
 13.850363 	 10.897830 	 5.003557 	 0.813688 	 0.765437 	 0.728250 	  
 10.344815 	 9.086892 	 3.533742 	 0.812562 	 0.767500 	 0.730250 	  
 4.182594 	 8.357487 	 3.518022 	 0.815500 	 0.766875 	 0.728313 	  
 -0.627710 	 7.778993 	 4.885658 	 0.812500 	 0.765687 	 0.729313 	  
 -0.423351 	 6.647156 	 4.752038 	 0.814438 	 0.767563 	 0.730000 	  
 5.007892 	 5.628504 	 6.347613 	 0.814625 	 0.765750 	 0.728187 	  
 12.026849 	 5.666231 	 5.970334 	 0.812500 	 0.766813 	 0.730375 	  
 15.846797 	 7.552625 	 5.090017 	 0.815312 	 0.767000 	 0.728375 	  
 14.447721 	 9.690538 	 7.896028 	 0.812813 	 0.765563 	 0.728500 	  
 9.055779 	 10.746919 	 4.044641 	 0.812813 	 0.767375 	 0.730187 	  
 3.050758 	 9.828874 	 4.186120 	 0.815125 	 0.765625 	 0.728250 	  
 3.860335 	 7.024435 	 5.145037 	 0.812500 	 0.766125 	 0.730187 	  
 11.185832 	 5.188345 	 0.774891 	 0.815375 	 0.767437 	 0.728563 	  
 16.341975 	 6.131542 	 2.897084 	 0.812875 	 0.765687 	 0.728250 	  
 17.017933 	 6.546549 	 -0.726364 	 0.812500 	 0.767813 	 0.730250 	  
 12.710667 	 5.578200 	 -1.881780 	 0.815375 	 0.766125 	 0.728125 	  
 7.216545 	 4.987130 	 0.877071 	 0.812438 	 0.765750 	 0.730313 	  
 4.135435 	 5.666231 	 -3.178676 	 0.815250 	 0.767875 	 0.728750 	  
 6.697786 	 5.226073 	 2.724165 	 0.813188 	 0.765938 	 0.728125 	  
 11.877510 	 3.993629 	 2.621985 	 0.812937 	 0.767750 	 0.730313 	  
 13.292305 	 3.729534 	 4.256860 	 0.815250 	 0.766125 	 0.728313 	  
 12.749967 	 3.679230 	 5.121457 	 0.812750 	 0.767188 	 0.730250 	  
 10.564894 	 2.245570 	 0.672711 	 0.815375 	 0.767687 	 0.728625 	  
 5.542370 	 0.811911 	 3.093584 	 0.812688 	 0.766000 	 0.728375 	  
 3.270837 	 -0.445685 	 1.961747 	 0.812875 	 0.767875 	 0.730375 	  
 7.373744 	 0.648424 	 3.384403 	 0.815312 	 0.766188 	 0.728250 	  
 14.361262 	 2.207843 	 2.181827 	 0.812562 	 0.765875 	 0.730313 	  
 16.577774 	 2.270722 	 2.983544 	 0.815438 	 0.767687 	 0.728812 	  
 14.227642 	 3.691806 	 5.074297 	 0.813063 	 0.765750 	 0.728125 	  
 12.514167 	 7.414290 	 5.813135 	 0.812438 	 0.767563 	 0.730375 	  
 11.075792 	 9.728266 	 6.748472 	 0.815500 	 0.766313 	 0.728187 	  
 10.289795 	 10.419944 	 5.836715 	 0.812562 	 0.765625 	 0.730063 	  
 14.471301 	 10.231305 	 5.844575 	 0.815000 	 0.767750 	 0.729563 	  
 17.968990 	 10.834951 	 2.739885 	 0.814063 	 0.765750 	 0.728313 	  
 19.682464 	 10.558280 	 -2.243339 	 0.812562 	 0.767250 	 0.730187 	  
 16.294815 	 8.168847 	 -2.007540 	 0.815312 	 0.767250 	 0.728500 	  
 8.733520 	 6.622004 	 -0.726364 	 0.812688 	 0.765750 	 0.728688 	  
 -0.085372 	 5.691383 	 -4.019693 	 0.813750 	 0.767500 	 0.730313 	  
 -3.331541 	 4.961978 	 -3.838914 	 0.815063 	 0.765687 	 0.728187 	  
 2.382660 	 4.961978 	 -4.923590 	 0.812562 	 0.766625 	 0.730250 	  
 6.399107 	 5.301529 	 -0.993603 	 0.815562 	 0.767375 	 0.728437 	  
 3.553796 	 4.471515 	 0.994970 	 0.812750 	 0.765563 	 0.728500 	  
 -1.508027 	 1.566469 	 1.906727 	 0.814000 	 0.767375 	 0.730250 	  
 -5.257235 	 -0.093558 	 2.111087 	 0.815000 	 0.765500 	 0.728187 	  
 -5.398715 	 0.874791 	 -0.097566 	 0.812562 	 0.766875 	 0.730250 	  
 -1.335108 	 4.911674 	 0.342592 	 0.815188 	 0.766437 	 0.728437 	  
 4.685633 	 9.363563 	 0.806331 	 0.812688 	 0.765250 	 0.728812 	  
 10.061855 	 10.419944 	 -1.928940 	 0.814375 	 0.767062 	 0.730125 	  
 11.963969 	 9.011437 	 1.820268 	 0.814125 	 0.765125 	 0.728313 	  
 12.537747 	 9.413867 	 2.677005 	 0.812562 	 0.766938 	 0.730250 	  
 7.177245 	 11.602084 	 0.971390 	 0.815438 	 0.766062 	 0.728187 	  
 2.107561 	 13.916061 	 1.631628 	 0.812562 	 0.765625 	 0.729875 	  
 5.526650 	 13.903485 	 1.600188 	 0.815375 	 0.767625 	 0.729187 	  
 13.496664 	 11.224805 	 1.057850 	 0.813562 	 0.765500 	 0.728125 	  
 18.448448 	 9.476747 	 4.602699 	 0.812562 	 0.767437 	 0.730313 	  
 17.214432 	 8.935981 	 -1.465202 	 0.815375 	 0.766000 	 0.728375 	  
 11.225132 	 7.716113 	 1.553029 	 0.812750 	 0.765250 	 0.730187 	  
 3.899635 	 6.043510 	 2.551245 	 0.815375 	 0.767125 	 0.728812 	  
 0.944285 	 6.244726 	 0.539092 	 0.812937 	 0.765563 	 0.728375 	  
 7.743163 	 9.262956 	 5.742395 	 0.812750 	 0.767250 	 0.730313 	  
 15.909676 	 11.941635 	 4.233280 	 0.815375 	 0.765437 	 0.728250 	  
 18.173349 	 11.501477 	 6.269013 	 0.812438 	 0.765250 	 0.730313 	  
 13.842503 	 9.740842 	 4.178260 	 0.815438 	 0.767125 	 0.728563 	  
 8.623480 	 10.067817 	 3.604482 	 0.813000 	 0.765125 	 0.728125 	  
 5.731009 	 10.558280 	 1.891007 	 0.812688 	 0.767313 	 0.730500 	  
 6.171168 	 11.237381 	 3.486582 	 0.815438 	 0.765625 	 0.728125 	  
 10.722093 	 10.960710 	 5.600915 	 0.812562 	 0.765188 	 0.730187 	  
 15.815357 	 8.785069 	 5.467296 	 0.815250 	 0.767250 	 0.728812 	  
 18.000430 	 7.816720 	 5.923174 	 0.813000 	 0.765313 	 0.728125 	  
 17.010073 	 8.697038 	 6.103954 	 0.812625 	 0.767188 	 0.730313 	  
 11.704590 	 8.785069 	 7.974628 	 0.815375 	 0.765813 	 0.728313 	  
 5.817469 	 7.615505 	 6.182554 	 0.812438 	 0.765750 	 0.730187 	  
 4.827112 	 6.345333 	 3.486582 	 0.815500 	 0.767687 	 0.729000 	  
 11.028632 	 7.351410 	 1.600188 	 0.813500 	 0.765563 	 0.728187 	  
 16.624934 	 7.942480 	 2.095367 	 0.812562 	 0.767563 	 0.730375 	  
 15.406638 	 6.395637 	 6.496953 	 0.815500 	 0.765938 	 0.728313 	  
 10.391974 	 4.936826 	 4.107520 	 0.812625 	 0.765250 	 0.730187 	  
 7.216545 	 3.716958 	 5.050717 	 0.815250 	 0.767188 	 0.729187 	  
 5.440190 	 3.264223 	 1.309369 	 0.813625 	 0.765125 	 0.728063 	  
 6.721366 	 3.100736 	 2.936384 	 0.812562 	 0.767188 	 0.730313 	  
 9.527377 	 3.704382 	 3.565182 	 0.815250 	 0.765875 	 0.728375 	  
 10.502014 	 4.609851 	 1.773108 	 0.812625 	 0.765313 	 0.730125 	  
 9.362318 	 5.540472 	 -1.064343 	 0.815312 	 0.766875 	 0.728750 	  
 6.807826 	 5.490168 	 -1.355162 	 0.812937 	 0.765062 	 0.728125 	  
 4.583453 	 3.981053 	 2.228986 	 0.813063 	 0.767250 	 0.730313 	  
 2.429820 	 2.798913 	 3.211483 	 0.815250 	 0.765625 	 0.728187 	  
 3.970375 	 3.880445 	 3.368683 	 0.812500 	 0.766875 	 0.730375 	  
 7.562384 	 4.157116 	 6.190414 	 0.815375 	 0.766437 	 0.728250 	  
 10.910733 	 2.736033 	 5.231497 	 0.812813 	 0.765375 	 0.729625 	  
 11.688870 	 2.924672 	 5.412276 	 0.814875 	 0.767500 	 0.729938 	  
 8.639200 	 4.433787 	 4.162540 	 0.814375 	 0.765563 	 0.728250 	  
 4.889992 	 5.326680 	 4.374759 	 0.812750 	 0.766938 	 0.730250 	  
 2.987878 	 4.370908 	 4.193980 	 0.815250 	 0.766437 	 0.728437 	  
 7.263704 	 3.704382 	 1.427269 	 0.812625 	 0.765313 	 0.729125 	  
 15.092239 	 3.075584 	 1.922447 	 0.814937 	 0.767437 	 0.729812 	  
 18.582068 	 3.188767 	 1.152170 	 0.814438 	 0.765313 	 0.728125 	  
 17.638871 	 3.830141 	 2.716305 	 0.812438 	 0.766750 	 0.730375 	  
 12.136889 	 3.515742 	 2.378326 	 0.815375 	 0.766938 	 0.728375 	  
 6.619187 	 3.327103 	 2.236846 	 0.812875 	 0.765250 	 0.728500 	  
 7.082925 	 3.905597 	 -0.915003 	 0.813375 	 0.767313 	 0.730375 	  
 12.765687 	 4.723034 	 -0.003246 	 0.815063 	 0.765500 	 0.728187 	  
 15.736757 	 4.873946 	 -3.744594 	 0.812625 	 0.766375 	 0.730250 	  
 12.231208 	 3.452863 	 -2.031120 	 0.815312 	 0.766938 	 0.728500 	  
 7.554524 	 3.075584 	 -2.424119 	 0.812688 	 0.765563 	 0.729375 	  
 5.903929 	 2.899520 	 -2.746378 	 0.815125 	 0.767313 	 0.729625 	  
 4.874272 	 3.981053 	 0.295433 	 0.814000 	 0.765563 	 0.728250 	  
 4.528433 	 5.414712 	 6.198274 	 0.812562 	 0.767437 	 0.730313 	  
 8.104722 	 8.307183 	 2.763465 	 0.815438 	 0.766125 	 0.728250 	  
 12.592767 	 12.570433 	 3.856001 	 0.812625 	 0.765375 	 0.729437 	  
 14.219782 	 16.079126 	 -1.936800 	 0.814875 	 0.767375 	 0.729750 	  
 8.757100 	 17.173234 	 0.609832 	 0.813875 	 0.765375 	 0.728187 	  
 -1.374408 	 14.230460 	 1.600188 	 0.812500 	 0.767188 	 0.730250 	  
 -9.006443 	 9.514475 	 0.656991 	 0.815312 	 0.766000 	 0.728313 	  
 -6.082532 	 7.917328 	 3.793121 	 0.812625 	 0.765188 	 0.729938 	  
 3.860335 	 7.904752 	 6.347613 	 0.815125 	 0.767313 	 0.729313 	  
 9.267998 	 7.728689 	 4.516239 	 0.813750 	 0.765250 	 0.728250 	  
 9.645277 	 7.187922 	 4.697018 	 0.812625 	 0.767125 	 0.730250 	  
 8.348381 	 8.043088 	 4.154680 	 0.815438 	 0.766250 	 0.728250 	  
 4.473414 	 9.954634 	 2.708445 	 0.812688 	 0.765563 	 0.730313 	  
 0.574866 	 9.803722 	 2.614125 	 0.815500 	 0.767625 	 0.728938 	  
 2.021101 	 8.181423 	 4.107520 	 0.813000 	 0.765313 	 0.728187 	  
 9.920376 	 5.351832 	 5.192197 	 0.812875 	 0.767500 	 0.730375 	  
 15.076519 	 5.301529 	 7.927468 	 0.815438 	 0.766125 	 0.728250 	  
 14.699240 	 7.967632 	 6.143254 	 0.812688 	 0.765750 	 0.730250 	  
 10.627774 	 9.527051 	 6.418353 	 0.815250 	 0.767750 	 0.729187 	  
 6.430547 	 10.596007 	 4.201840 	 0.813625 	 0.765750 	 0.728250 	  
 6.296928 	 11.111622 	 3.651642 	 0.812562 	 0.767500 	 0.730250 	  
 10.156175 	 9.816298 	 1.372249 	 0.815375 	 0.766313 	 0.728313 	  
 13.292305 	 6.999283 	 -0.105426 	 0.812500 	 0.765687 	 0.730250 	  
 10.588474 	 4.798490 	 -1.645981 	 0.815250 	 0.767563 	 0.729125 	  
 6.179028 	 5.213497 	 -2.392679 	 0.813688 	 0.765313 	 0.728125 	  
 3.726716 	 7.741265 	 -1.685281 	 0.812500 	 0.767125 	 0.730437 	  
 1.085764 	 9.187500 	 0.051773 	 0.815500 	 0.765750 	 0.728250 	  
 0.582726 	 8.822797 	 -0.050406 	 0.812562 	 0.765125 	 0.730250 	  
 4.976452 	 7.653233 	 -0.333365 	 0.815250 	 0.767125 	 0.729000 	  
 8.961459 	 7.502321 	 2.747745 	 0.813375 	 0.765313 	 0.728187 	  
 11.028632 	 6.974131 	 3.266503 	 0.812625 	 0.767188 	 0.730313 	  
 11.751750 	 6.961555 	 3.219343 	 0.815375 	 0.765500 	 0.728250 	  
 9.189398 	 5.968054 	 3.132883 	 0.812562 	 0.765437 	 0.730313 	  
 6.147588 	 3.893021 	 3.070004 	 0.815438 	 0.767250 	 0.728750 	  
 7.106505 	 4.559547 	 5.042857 	 0.813438 	 0.765188 	 0.728313 	  
 13.559544 	 7.540049 	 3.070004 	 0.812500 	 0.767250 	 0.730375 	  
 18.267669 	 9.086892 	 2.779185 	 0.815438 	 0.766000 	 0.728187 	  
 18.692107 	 8.646734 	 4.476939 	 0.812562 	 0.765313 	 0.730250 	  
 15.548118 	 8.055664 	 6.339753 	 0.815125 	 0.767188 	 0.729375 	  
 8.348381 	 7.841872 	 5.946754 	 0.814000 	 0.765313 	 0.728250 	  
 4.905712 	 7.225650 	 3.973901 	 0.812500 	 0.766938 	 0.730250 	  
 9.008619 	 7.753841 	 6.394773 	 0.815312 	 0.766625 	 0.728375 	  
 15.603137 	 8.407791 	 5.498736 	 0.812750 	 0.765062 	 0.728938 	  
 17.238012 	 7.879600 	 1.953887 	 0.814188 	 0.767125 	 0.730125 	  
 13.850363 	 5.213497 	 3.753821 	 0.814750 	 0.765313 	 0.728375 	  
 10.038275 	 3.628926 	 2.464786 	 0.812562 	 0.766437 	 0.730250 	  
 8.065422 	 5.163193 	 0.153953 	 0.815500 	 0.767125 	 0.728375 	  
 8.222621 	 6.848372 	 -0.569165 	 0.812562 	 0.765563 	 0.729437 	  
 12.215488 	 7.150195 	 -4.192613 	 0.815125 	 0.767500 	 0.729625 	  
 15.571698 	 7.275954 	 -3.272996 	 0.813750 	 0.765687 	 0.728187 	  
 15.076519 	 5.515320 	 -0.663484 	 0.812562 	 0.767563 	 0.730313 	  
 13.221565 	 2.446786 	 1.678788 	 0.815500 	 0.766313 	 0.728375 	  
 12.301948 	 2.987552 	 2.535525 	 0.812813 	 0.765563 	 0.729625 	  
 10.635634 	 6.005782 	 1.285789 	 0.814813 	 0.767437 	 0.729875 	  
 9.904656 	 5.955478 	 2.574825 	 0.813750 	 0.765563 	 0.728313 	  
 14.384841 	 3.113312 	 2.488366 	 0.812625 	 0.767313 	 0.730375 	  
 17.175132 	 2.572545 	 1.529449 	 0.815562 	 0.766437 	 0.728313 	  
 16.106176 	 5.527896 	 2.354746 	 0.812562 	 0.765500 	 0.729500 	  
 14.361262 	 7.137619 	 0.106793 	 0.814250 	 0.767250 	 0.730063 	  
 9.637417 	 7.791569 	 2.842064 	 0.814375 	 0.765188 	 0.728250 	  
 3.302277 	 8.407791 	 3.321523 	 0.812500 	 0.766687 	 0.730437 	  
 2.107561 	 8.055664 	 -0.356945 	 0.815312 	 0.767000 	 0.728375 	  
 8.992899 	 7.854448 	 0.130373 	 0.812875 	 0.765500 	 0.728563 	  
 15.273019 	 7.288530 	 -0.026826 	 0.812937 	 0.767313 	 0.730500 	  
 13.339465 	 5.905175 	 3.856001 	 0.815375 	 0.765938 	 0.728250 	  
 7.397324 	 5.880023 	 -0.073986 	 0.812625 	 0.766000 	 0.730313 	  
 2.186161 	 6.156694 	 -1.441622 	 0.815312 	 0.767250 	 0.728563 	  
 -1.924606 	 6.508821 	 -0.380525 	 0.812688 	 0.765563 	 0.728563 	  
 -1.020709 	 5.452440 	 1.977467 	 0.813937 	 0.767375 	 0.730250 	  
 3.938935 	 3.905597 	 7.369410 	 0.814625 	 0.765313 	 0.728250 	  
 6.320508 	 3.641502 	 4.697018 	 0.812625 	 0.766000 	 0.730437 	  
 5.000032 	 6.043510 	 -0.380525 	 0.815438 	 0.767250 	 0.728625 	  
 2.091841 	 8.772493 	 3.014984 	 0.812937 	 0.765000 	 0.728125 	  
 -1.107168 	 8.043088 	 2.865644 	 0.812813 	 0.767188 	 0.730437 	  
 -4.298318 	 6.823220 	 1.136450 	 0.815438 	 0.765500 	 0.728250 	  
 -3.410141 	 7.452018 	 -1.182243 	 0.812438 	 0.765313 	 0.730187 	  
 2.217601 	 5.980630 	 -0.702784 	 0.815250 	 0.766938 	 0.728500 	  
 8.678500 	 4.647579 	 3.738102 	 0.812813 	 0.765313 	 0.728625 	  
 12.639927 	 4.094236 	 7.723109 	 0.814625 	 0.767313 	 0.730000 	  
 12.262648 	 5.791991 	 3.046424 	 0.813875 	 0.765500 	 0.728437 	  
 7.122225 	 8.609006 	 4.681298 	 0.812688 	 0.767625 	 0.730375 	  
 2.052541 	 8.533550 	 2.118947 	 0.815562 	 0.766313 	 0.728375 	  
 3.946795 	 7.137619 	 6.614852 	 0.812562 	 0.765437 	 0.730313 	  
 10.187615 	 6.295029 	 10.183281 	 0.815312 	 0.767750 	 0.729250 	  
 14.164762 	 6.559125 	 6.339753 	 0.813937 	 0.765750 	 0.728187 	  
 15.383058 	 7.552625 	 2.252566 	 0.812500 	 0.767625 	 0.730500 	  
 14.487021 	 8.068240 	 0.987110 	 0.815500 	 0.766938 	 0.728375 	  
 10.069715 	 7.162771 	 5.836715 	 0.812750 	 0.765687 	 0.729500 	  
 7.122225 	 6.093814 	 3.565182 	 0.814937 	 0.767687 	 0.729812 	  
 11.067932 	 7.200498 	 3.580902 	 0.814000 	 0.765938 	 0.728250 	  
 17.332332 	 10.004937 	 -0.828544 	 0.812562 	 0.767437 	 0.730313 	  
 18.338409 	 9.791146 	 -4.161173 	 0.815438 	 0.766500 	 0.728375 	  
 16.082596 	 7.326258 	 -6.424846 	 0.812500 	 0.765750 	 0.730063 	  
 12.671367 	 6.848372 	 -1.999680 	 0.815375 	 0.767687 	 0.729313 	  
 6.980745 	 7.841872 	 0.248273 	 0.813562 	 0.765750 	 0.728187 	  
 3.042898 	 5.678807 	 2.999264 	 0.812562 	 0.767875 	 0.730375 	  
 5.841049 	 4.936826 	 6.237573 	 0.815500 	 0.766625 	 0.728250 	  
 11.350891 	 6.710036 	 4.791338 	 0.812562 	 0.765875 	 0.730375 	  
 13.009346 	 8.143695 	 5.593055 	 0.815375 	 0.767625 	 0.729187 	  
 11.704590 	 7.489745 	 5.545896 	 0.813625 	 0.765875 	 0.728187 	  
 7.955382 	 5.288953 	 4.744178 	 0.812625 	 0.767750 	 0.730250 	  
 4.536293 	 3.415135 	 3.722382 	 0.815438 	 0.766625 	 0.728250 	  
 4.717073 	 3.804989 	 2.842064 	 0.812562 	 0.765687 	 0.730250 	  
 10.344815 	 5.729111 	 3.439422 	 0.815500 	 0.767313 	 0.729125 	  
 13.150825 	 7.376562 	 5.215777 	 0.813562 	 0.765437 	 0.728187 	  
 12.270508 	 6.886099 	 2.865644 	 0.812500 	 0.767250 	 0.730437 	  
 7.978962 	 5.024857 	 1.450849 	 0.815500 	 0.765875 	 0.728187 	  
 2.476980 	 4.458939 	 0.523372 	 0.812562 	 0.765000 	 0.730125 	  
 -0.643430 	 4.773338 	 4.359039 	 0.815188 	 0.767250 	 0.729187 	  
 3.097918 	 5.766839 	 4.414059 	 0.813562 	 0.765125 	 0.728187 	  
 10.494154 	 5.703959 	 4.885658 	 0.812500 	 0.767313 	 0.730313 	  
 13.528104 	 7.125043 	 1.993187 	 0.815312 	 0.766000 	 0.728437 	  
 13.355185 	 9.401291 	 2.024627 	 0.812688 	 0.765813 	 0.730313 	  
 12.388408 	 9.174924 	 3.510162 	 0.815500 	 0.767500 	 0.728812 	  
 7.287284 	 7.037011 	 1.537309 	 0.812813 	 0.765750 	 0.728563 	  
 1.659543 	 5.326680 	 0.971390 	 0.814000 	 0.767563 	 0.730313 	  
 4.363374 	 4.861370 	 0.476212 	 0.815188 	 0.765625 	 0.728187 	  
 13.197985 	 5.150617 	 0.884931 	 0.812562 	 0.766250 	 0.730500 	  
 17.481671 	 4.043933 	 2.787045 	 0.815250 	 0.767250 	 0.728500 	  
 16.176916 	 3.918173 	 2.386186 	 0.812875 	 0.765687 	 0.728688 	  
 11.893229 	 5.087737 	 -0.632044 	 0.813688 	 0.767687 	 0.730375 	  
 5.290851 	 5.955478 	 1.380109 	 0.814625 	 0.765813 	 0.728250 	  
 4.874272 	 6.496245 	 2.456926 	 0.812750 	 0.767250 	 0.730313 	  
 12.003269 	 7.338834 	 4.681298 	 0.815375 	 0.767000 	 0.728437 	  
 15.760337 	 7.829296 	 2.684865 	 0.812438 	 0.765875 	 0.729625 	  
 13.606704 	 8.043088 	 2.228986 	 0.814000 	 0.767625 	 0.730250 	  
 11.594550 	 7.489745 	 1.883148 	 0.815063 	 0.765750 	 0.728187 	  
 9.071499 	 6.609428 	 3.635922 	 0.812562 	 0.767062 	 0.730437 	  
 3.883915 	 6.018358 	 3.148603 	 0.815438 	 0.766938 	 0.728375 	  
 3.428037 	 6.005782 	 1.576609 	 0.812688 	 0.765750 	 0.729313 	  
 11.288011 	 5.968054 	 4.107520 	 0.815000 	 0.767563 	 0.729625 	  
 17.120113 	 7.125043 	 3.030704 	 0.814250 	 0.765687 	 0.728250 	  
 18.424868 	 8.747341 	 3.439422 	 0.812688 	 0.767000 	 0.730250 	  
 15.493098 	 9.828874 	 2.441206 	 0.815375 	 0.766750 	 0.728375 	  
 8.419121 	 11.187078 	 3.824561 	 0.812750 	 0.765563 	 0.728875 	  
 3.207958 	 12.004515 	 4.571259 	 0.814937 	 0.767563 	 0.729688 	  
 4.237614 	 13.174079 	 4.964258 	 0.813937 	 0.765375 	 0.728187 	  
 10.470574 	 15.450328 	 4.469079 	 0.812500 	 0.767000 	 0.730375 	  
 13.473084 	 16.821107 	 2.865644 	 0.815438 	 0.766813 	 0.728313 	  
 10.895013 	 15.978518 	 6.284733 	 0.812625 	 0.765062 	 0.728625 	  
 5.903929 	 13.111199 	 2.221126 	 0.813375 	 0.767125 	 0.730313 	  
 1.667403 	 11.287685 	 0.735591 	 0.815000 	 0.765313 	 0.728187 	  
 -0.329031 	 11.451173 	 1.411549 	 0.812562 	 0.766125 	 0.730250 	  
 3.797456 	 11.199653 	 1.946027 	 0.815312 	 0.766938 	 0.728375 	  
 9.747456 	 9.112044 	 2.346886 	 0.812813 	 0.765563 	 0.728500 	  
 10.863573 	 6.772916 	 1.317229 	 0.813625 	 0.767500 	 0.730187 	  
 7.790323 	 7.162771 	 -1.009323 	 0.814625 	 0.765750 	 0.728313 	  
 5.306571 	 7.213074 	 -1.276562 	 0.812688 	 0.767500 	 0.730250 	  
 0.567006 	 6.030934 	 -2.180459 	 0.815625 	 0.766375 	 0.728313 	  
 -3.276521 	 5.024857 	 -3.760314 	 0.812688 	 0.765563 	 0.730437 	  
 1.533783 	 3.804989 	 -3.603115 	 0.815375 	 0.767375 	 0.729000 	  
 8.277641 	 3.113312 	 -4.114013 	 0.813188 	 0.765437 	 0.728250 	  
 10.808553 	 2.132387 	 -2.070420 	 0.812562 	 0.767625 	 0.730375 	  
 10.281935 	 2.648001 	 -2.266919 	 0.815500 	 0.766062 	 0.728375 	  
 7.986822 	 3.478014 	 -0.938583 	 0.812813 	 0.765687 	 0.730250 	  
 4.331934 	 2.748609 	 -0.812824 	 0.815375 	 0.767375 	 0.728750 	  
 3.035038 	 3.603774 	 -0.474845 	 0.812813 	 0.765500 	 0.728437 	  
 7.625263 	 4.056509 	 0.955671 	 0.813500 	 0.767375 	 0.730187 	  
 13.339465 	 4.157116 	 2.724165 	 0.815188 	 0.765437 	 0.728250 	  
 17.214432 	 5.075161 	 4.641999 	 0.812500 	 0.765875 	 0.730313 	  
 14.392701 	 5.955478 	 4.720598 	 0.815562 	 0.767062 	 0.728437 	  
 7.043625 	 6.798068 	 4.476939 	 0.812688 	 0.765313 	 0.728938 	  
 0.763506 	 7.414290 	 5.451576 	 0.813312 	 0.767437 	 0.730375 	  
 3.475197 	 7.992784 	 4.594839 	 0.815250 	 0.765375 	 0.728125 	  
 12.710667 	 8.546126 	 2.716305 	 0.812688 	 0.766313 	 0.730187 	  
 17.418792 	 8.231727 	 5.765975 	 0.815375 	 0.767000 	 0.728563 	  
 16.271235 	 5.138041 	 5.538036 	 0.812875 	 0.765687 	 0.728375 	  
 13.410205 	 2.736033 	 6.779912 	 0.813500 	 0.767188 	 0.730250 	  
 7.688143 	 3.226495 	 6.929251 	 0.815250 	 0.765500 	 0.728250 	  
 2.516280 	 6.357909 	 6.512673 	 0.812562 	 0.766000 	 0.730250 	  
 2.626319 	 7.590353 	 4.343320 	 0.815625 	 0.767188 	 0.728500 	  
 9.150098 	 7.049587 	 6.166834 	 0.812625 	 0.765250 	 0.728625 	  
 15.838937 	 6.295029 	 5.019277 	 0.813063 	 0.767188 	 0.730313 	  
 16.562054 	 5.930327 	 3.014984 	 0.815438 	 0.765625 	 0.728125 	  
 14.487021 	 4.723034 	 4.044641 	 0.812500 	 0.765250 	 0.730313 	  
 7.876782 	 2.283298 	 3.753821 	 0.815250 	 0.767000 	 0.728500 	  
 0.559146 	 1.792836 	 4.618419 	 0.812813 	 0.765125 	 0.728625 	  
 2.296201 	 2.270722 	 3.730242 	 0.814125 	 0.767000 	 0.730187 	  
 9.998976 	 2.610273 	 2.952104 	 0.814188 	 0.765375 	 0.728250 	  
 15.524538 	 2.622849 	 2.614125 	 0.812875 	 0.767500 	 0.730313 	  
 15.893957 	 2.220419 	 2.276146 	 0.815438 	 0.766313 	 0.728250 	  
 13.268725 	 3.452863 	 5.082157 	 0.812562 	 0.765750 	 0.729875 	  
 10.069715 	 5.439864 	 1.875288 	 0.815312 	 0.767687 	 0.729437 	  
 8.607760 	 6.999283 	 1.301509 	 0.813937 	 0.765625 	 0.728313 	  
 11.122952 	 7.640657 	 0.554812 	 0.812562 	 0.767687 	 0.730375 	  
 13.535964 	 5.880023 	 -2.149019 	 0.815625 	 0.766687 	 0.728250 	  
 12.011129 	 4.169692 	 -1.543801 	 0.812562 	 0.765563 	 0.730187 	  
 7.845343 	 2.547393 	 -3.838914 	 0.815312 	 0.767563 	 0.729125 	  
 6.454127 	 1.943747 	 -0.789244 	 0.813750 	 0.765687 	 0.728250 	  
 6.406967 	 3.716958 	 0.169673 	 0.812688 	 0.767437 	 0.730313 	  
 5.919649 	 5.490168 	 1.608048 	 0.815375 	 0.766188 	 0.728187 	  
 8.882859 	 6.936403 	 -2.439838 	 0.812500 	 0.765750 	 0.730187 	  
 12.482728 	 6.810644 	 1.922447 	 0.815312 	 0.767500 	 0.728812 	  
 12.624207 	 6.936403 	 1.136450 	 0.813063 	 0.765500 	 0.728250 	  
 10.769253 	 7.011859 	 1.670928 	 0.812688 	 0.767625 	 0.730437 	  
 7.130085 	 8.068240 	 1.733808 	 0.815500 	 0.765813 	 0.728125 	  
 2.524140 	 9.577355 	 1.765248 	 0.812562 	 0.765938 	 0.730250 	  
 1.580943 	 8.810221 	 1.804548 	 0.815312 	 0.767375 	 0.728625 	  
 7.075065 	 7.439442 	 1.191470 	 0.812813 	 0.765813 	 0.728563 	  
 13.268725 	 7.187922 	 -0.184026 	 0.814125 	 0.767750 	 0.730187 	  
 13.999703 	 8.231727 	 4.814918 	 0.814625 	 0.765687 	 0.728375 	  
 11.413771 	 8.269455 	 4.311880 	 0.812688 	 0.766437 	 0.730313 	  
 6.760666 	 6.508821 	 5.278657 	 0.815375 	 0.767188 	 0.728500 	  
 3.262977 	 6.785492 	 4.099660 	 0.812500 	 0.765375 	 0.728625 	  
 5.487350 	 8.256879 	 5.946754 	 0.813375 	 0.767313 	 0.730250 	  
 11.759610 	 9.476747 	 4.193980 	 0.815312 	 0.765500 	 0.728125 	  
 15.595278 	 10.520552 	 4.186120 	 0.812500 	 0.765813 	 0.730313 	  
 15.147259 	 10.721767 	 1.136450 	 0.815250 	 0.767188 	 0.728500 	  
 9.841776 	 11.325413 	 4.217560 	 0.812750 	 0.765188 	 0.728375 	  
 2.972158 	 11.249957 	 3.297943 	 0.813250 	 0.767250 	 0.730437 	  
 -0.643430 	 11.099046 	 3.030704 	 0.815312 	 0.765375 	 0.728250 	  
 2.618460 	 10.017513 	 3.392263 	 0.812688 	 0.766375 	 0.730375 	  
 7.593823 	 8.219151 	 0.499792 	 0.815500 	 0.766625 	 0.728250 	  
 8.867139 	 7.414290 	 0.342592 	 0.812562 	 0.765625 	 0.729875 	  
 8.136162 	 6.810644 	 0.476212 	 0.815312 	 0.767687 	 0.729250 	  
 6.839266 	 5.138041 	 -3.139376 	 0.813625 	 0.765437 	 0.728187 	  
 3.813176 	 2.861792 	 2.684865 	 0.812500 	 0.767563 	 0.730500 	  
 2.217601 	 2.685729 	 1.812408 	 0.815562 	 0.766062 	 0.728250 	  
 7.601683 	 4.798490 	 2.378326 	 0.812688 	 0.765250 	 0.730125 	  
 14.534181 	 7.452018 	 1.765248 	 0.815250 	 0.767188 	 0.729125 	  
 15.948976 	 10.042665 	 3.070004 	 0.813312 	 0.765313 	 0.728125 	  
 14.101882 	 9.476747 	 2.008907 	 0.812562 	 0.767250 	 0.730250 	  
 8.254061 	 7.804144 	 3.635922 	 0.815438 	 0.765625 	 0.728313 	  
 1.525923 	 6.823220 	 2.016767 	 0.812562 	 0.765437 	 0.730250 	  
 2.767799 	 5.678807 	 4.744178 	 0.815500 	 0.767125 	 0.728563 	  
 11.005052 	 5.968054 	 3.345103 	 0.812875 	 0.765313 	 0.728250 	  
 14.094022 	 7.162771 	 1.419409 	 0.812875 	 0.767437 	 0.730437 	  
 9.173678 	 6.747764 	 1.521589 	 0.815375 	 0.765500 	 0.728187 	  
 3.074338 	 4.785914 	 3.824561 	 0.812562 	 0.765625 	 0.730313 	  
 1.573083 	 4.006205 	 2.645565 	 0.815312 	 0.767563 	 0.728750 	  
 2.335500 	 5.766839 	 3.211483 	 0.813063 	 0.765625 	 0.728250 	  
 4.929292 	 7.011859 	 3.848141 	 0.813063 	 0.767437 	 0.730250 	  
 9.535237 	 7.087315 	 6.316173 	 0.815312 	 0.765500 	 0.728187 	  
 13.253005 	 8.797645 	 8.988565 	 0.812562 	 0.765625 	 0.730313 	  
 13.850363 	 10.809799 	 5.097877 	 0.815562 	 0.767188 	 0.728563 	  
 11.775330 	 11.451173 	 1.938167 	 0.813000 	 0.765125 	 0.728250 	  
 7.578103 	 9.677962 	 4.209700 	 0.812625 	 0.767062 	 0.730313 	  
 4.638473 	 9.112044 	 3.423703 	 0.815562 	 0.765437 	 0.728250 	  
 8.089002 	 9.602507 	 2.291866 	 0.812500 	 0.764938 	 0.730250 	  
 14.062582 	 9.652810 	 -0.003246 	 0.815250 	 0.766938 	 0.729000 	  
 17.363772 	 9.350987 	 -0.797104 	 0.813312 	 0.764938 	 0.728000 	  
 16.978633 	 8.508398 	 -0.765664 	 0.812688 	 0.767062 	 0.730313 	  
 12.246928 	 7.678385 	 2.354746 	 0.815438 	 0.765313 	 0.728187 	  
 5.157231 	 7.552625 	 0.751311 	 0.812688 	 0.764875 	 0.730063 	  
 2.453400 	 8.508398 	 -1.614541 	 0.815312 	 0.767062 	 0.728688 	  
 8.662780 	 9.891754 	 -0.608464 	 0.812750 	 0.765375 	 0.728688 	  
 16.279095 	 10.143273 	 -1.606681 	 0.814937 	 0.767313 	 0.729812 	  
 16.514895 	 9.451595 	 -2.353379 	 0.814188 	 0.765313 	 0.728313 	  
 12.962186 	 9.237804 	 1.317229 	 0.812562 	 0.767250 	 0.730375 	  
 7.782463 	 9.250380 	 0.814191 	 0.815562 	 0.766250 	 0.728375 	  
 2.154721 	 8.319759 	 2.315446 	 0.812562 	 0.765500 	 0.730187 	  
 2.060401 	 5.993206 	 -0.577025 	 0.815312 	 0.767313 	 0.729125 	  
 10.148315 	 4.760762 	 1.946027 	 0.813625 	 0.765313 	 0.728187 	  
 17.992570 	 5.150617 	 2.111087 	 0.812625 	 0.767188 	 0.730313 	  
 20.814301 	 6.823220 	 2.881364 	 0.815500 	 0.766000 	 0.728313 	  
 17.709611 	 8.307183 	 -0.545585 	 0.812625 	 0.765500 	 0.730250 	  
 9.810336 	 7.175347 	 3.486582 	 0.815500 	 0.767313 	 0.728938 	  
 1.604523 	 5.867447 	 0.932091 	 0.813438 	 0.765500 	 0.728250 	  
 0.260467 	 4.484091 	 -0.231186 	 0.812500 	 0.767250 	 0.730375 	  
 6.564167 	 3.679230 	 1.505869 	 0.815562 	 0.765437 	 0.728187 	  
 12.938606 	 5.603352 	 4.744178 	 0.812562 	 0.765563 	 0.730375 	  
 14.950760 	 7.955056 	 4.445499 	 0.815312 	 0.767563 	 0.728688 	  
 14.062582 	 8.722190 	 7.062871 	 0.813125 	 0.765500 	 0.728125 	  
 11.437351 	 7.829296 	 6.174694 	 0.812688 	 0.767250 	 0.730375 	  
 6.925726 	 6.445941 	 4.083940 	 0.815500 	 0.766062 	 0.728437 	  
 6.383387 	 5.527896 	 4.131100 	 0.812562 	 0.765375 	 0.730187 	  
 10.792833 	 5.188345 	 5.042857 	 0.815438 	 0.767375 	 0.728812 	  
 13.905383 	 5.968054 	 7.440150 	 0.813375 	 0.765500 	 0.728313 	  
 13.135105 	 6.584276 	 8.359767 	 0.812688 	 0.767250 	 0.730250 	  
 9.040059 	 5.427288 	 11.645236 	 0.815500 	 0.765750 	 0.728187 	  
 2.469120 	 4.559547 	 3.565182 	 0.812438 	 0.765437 	 0.730313 	  
 -2.490524 	 4.622427 	 -0.922863 	 0.815312 	 0.767250 	 0.729125 	  
 -0.352611 	 4.358332 	 -1.457342 	 0.813688 	 0.765000 	 0.728063 	  
 6.737086 	 3.628926 	 -0.498425 	 0.812500 	 0.766813 	 0.730250 	  
 10.344815 	 3.842717 	 3.415843 	 0.815500 	 0.765625 	 0.728250 	  
 11.413771 	 4.697883 	 2.315446 	 0.812562 	 0.765062 	 0.730250 	  
 9.008619 	 4.584699 	 -0.545585 	 0.815375 	 0.767000 	 0.729063 	  
 3.058618 	 4.496667 	 -0.781384 	 0.813250 	 0.765250 	 0.728187 	  
 -1.728106 	 4.081661 	 -1.457342 	 0.812813 	 0.767250 	 0.730250 	  
 -1.311528 	 3.452863 	 -0.797104 	 0.815375 	 0.765563 	 0.728375 	  
 1.604523 	 2.170115 	 -1.284422 	 0.812625 	 0.766938 	 0.730375 	  
 3.986095 	 2.245570 	 -1.111503 	 0.815562 	 0.766563 	 0.728250 	  
 2.484840 	 4.119388 	 -2.282639 	 0.812688 	 0.765500 	 0.730187 	  
 -0.722030 	 4.811066 	 1.073570 	 0.815312 	 0.767500 	 0.729250 	  
 -4.196138 	 4.333180 	 2.755605 	 0.813688 	 0.765500 	 0.728125 	  
 -2.388344 	 4.295452 	 4.461219 	 0.812625 	 0.767313 	 0.730313 	  
 7.122225 	 6.710036 	 0.649132 	 0.815375 	 0.766125 	 0.728375 	  
 16.231935 	 8.269455 	 3.903161 	 0.812625 	 0.765500 	 0.730187 	  
 18.684248 	 5.968054 	 0.798471 	 0.815438 	 0.767437 	 0.729000 	  
 16.994353 	 4.509243 	 3.518022 	 0.813375 	 0.765375 	 0.728313 	  
 11.893229 	 5.339256 	 1.317229 	 0.812625 	 0.767563 	 0.730437 	  
 6.068988 	 5.842295 	 0.130373 	 0.815500 	 0.765938 	 0.728250 	  
 5.510930 	 5.842295 	 1.246490 	 0.812562 	 0.765375 	 0.730437 	  
 12.003269 	 6.081238 	 1.270069 	 0.815312 	 0.767375 	 0.729000 	  
 17.615291 	 7.867024 	 2.276146 	 0.813188 	 0.765250 	 0.728187 	  
 18.574208 	 9.879178 	 -0.176166 	 0.812625 	 0.767062 	 0.730375 	  
 18.008290 	 10.206153 	 0.798471 	 0.815438 	 0.765813 	 0.728375 	  
 13.496664 	 11.099046 	 4.170400 	 0.812688 	 0.765375 	 0.730313 	  
 7.727443 	 12.608161 	 4.076080 	 0.815375 	 0.767250 	 0.728750 	  
 9.283718 	 12.872256 	 7.966768 	 0.812937 	 0.765188 	 0.728250 	  
 17.198712 	 11.664964 	 5.498736 	 0.812813 	 0.767188 	 0.730313 	  
 20.971500 	 11.262533 	 3.824561 	 0.815562 	 0.765687 	 0.728187 	  
 18.959347 	 11.073894 	 1.812408 	 0.812500 	 0.765375 	 0.730313 	  
 15.076519 	 9.854026 	 1.042130 	 0.815438 	 0.767437 	 0.728875 	  
 8.827839 	 8.445518 	 3.030704 	 0.813125 	 0.765375 	 0.728187 	  
 4.504853 	 7.024435 	 6.206134 	 0.812625 	 0.767250 	 0.730500 	  
 6.815686 	 6.433365 	 3.565182 	 0.815438 	 0.765625 	 0.728250 	  
 12.883586 	 5.892599 	 5.066437 	 0.812625 	 0.765250 	 0.730375 	  
 15.194419 	 5.703959 	 6.677732 	 0.815375 	 0.767000 	 0.728812 	  
 11.743890 	 4.924250 	 6.017494 	 0.813000 	 0.765375 	 0.728187 	  
 6.587747 	 3.528318 	 5.970334 	 0.812562 	 0.767188 	 0.730375 	  
 1.557363 	 4.094236 	 4.193980 	 0.815375 	 0.765500 	 0.728250 	  
 1.604523 	 4.924250 	 1.961747 	 0.812562 	 0.765625 	 0.730313 	  
 8.961459 	 3.779838 	 2.126807 	 0.815562 	 0.767188 	 0.728437 	  
 14.589201 	 3.591198 	 4.791338 	 0.812750 	 0.765313 	 0.728750 	  
 15.092239 	 4.873946 	 5.695235 	 0.813937 	 0.767500 	 0.730250 	  
 12.710667 	 5.540472 	 2.464786 	 0.815250 	 0.765500 	 0.728313 	  
 7.452344 	 4.069085 	 -3.359456 	 0.812562 	 0.766062 	 0.730375 	  
 -0.722030 	 2.446786 	 -6.377686 	 0.815312 	 0.766875 	 0.728563 	  
 -3.811000 	 2.497090 	 -5.513089 	 0.812875 	 0.765437 	 0.728875 	  
 3.412317 	 3.478014 	 -2.597038 	 0.814688 	 0.766813 	 0.729875 	  
 11.398051 	 3.063008 	 -1.095783 	 0.814125 	 0.765250 	 0.728250 	  
 15.925396 	 1.013126 	 -1.056483 	 0.812562 	 0.767313 	 0.730313 	  
 15.823217 	 1.038278 	 -0.356945 	 0.815500 	 0.766188 	 0.728375 	  
 10.211195 	 2.723457 	 -0.459125 	 0.812562 	 0.765437 	 0.730125 	  
 3.435897 	 3.704382 	 -1.072203 	 0.815250 	 0.767563 	 0.729375 	  
 4.276914 	 4.685307 	 -3.170816 	 0.813813 	 0.765313 	 0.728250 	  
 10.839993 	 5.892599 	 -2.502718 	 0.812500 	 0.767188 	 0.730563 	  
 13.378765 	 6.999283 	 2.944244 	 0.815438 	 0.765687 	 0.728313 	  
 11.209412 	 8.407791 	 4.759898 	 0.812750 	 0.765437 	 0.730250 	  
 6.627047 	 10.243881 	 4.351180 	 0.815312 	 0.767437 	 0.729000 	  
 2.044681 	 11.916483 	 5.506596 	 0.813375 	 0.765437 	 0.728250 	  
 -0.973549 	 10.834951 	 2.967824 	 0.812750 	 0.767375 	 0.730375 	  
 0.166147 	 10.357064 	 2.732025 	 0.815375 	 0.766000 	 0.728313 	  
 4.779953 	 9.212652 	 4.429779 	 0.812562 	 0.765563 	 0.730250 	  
 9.888936 	 6.710036 	 7.337970 	 0.815438 	 0.767625 	 0.728875 	  
 10.910733 	 7.640657 	 8.171127 	 0.813312 	 0.765313 	 0.728313 	  
 8.647060 	 10.847527 	 3.989621 	 0.812438 	 0.767250 	 0.730375 	  
 3.357297 	 13.274687 	 2.818484 	 0.815500 	 0.765625 	 0.728187 	  
 0.126848 	 13.513630 	 2.857784 	 0.812500 	 0.765188 	 0.730187 	  
 3.137218 	 12.570433 	 3.580902 	 0.815250 	 0.767125 	 0.729063 	  
 7.971102 	 12.193154 	 3.706662 	 0.813250 	 0.765437 	 0.728187 	  
 10.274075 	 12.017091 	 0.861351 	 0.812562 	 0.767000 	 0.730125 	  
 10.171895 	 11.061318 	 2.897084 	 0.815250 	 0.765500 	 0.728250 	  
 7.570243 	 11.199653 	 2.912804 	 0.812500 	 0.765375 	 0.730250 	  
 2.869979 	 10.495400 	 2.991404 	 0.815562 	 0.767437 	 0.728812 	  
 0.794945 	 10.507976 	 0.664851 	 0.812875 	 0.765563 	 0.728563 	  
 6.799966 	 9.992361 	 -0.466985 	 0.814000 	 0.767750 	 0.730250 	  
 13.300165 	 7.716113 	 2.889224 	 0.814125 	 0.765563 	 0.728187 	  
 16.459875 	 3.981053 	 -0.388385 	 0.812625 	 0.767375 	 0.730500 	  
 14.062582 	 1.566469 	 0.759171 	 0.815375 	 0.766500 	 0.728375 	  
 9.181538 	 2.736033 	 2.056067 	 0.812750 	 0.765500 	 0.730000 	  
 5.762449 	 4.245148 	 1.749528 	 0.815438 	 0.767313 	 0.729250 	  
 6.862846 	 4.609851 	 3.384403 	 0.813813 	 0.765437 	 0.728250 	  
 12.121169 	 3.490590 	 5.396556 	 0.812688 	 0.767437 	 0.730313 	  
 15.831077 	 2.358754 	 2.952104 	 0.815438 	 0.766062 	 0.728187 	  
 17.481671 	 2.924672 	 3.148603 	 0.812562 	 0.765250 	 0.730375 	  
 16.302675 	 3.893021 	 6.158974 	 0.815312 	 0.767250 	 0.729250 	  
 11.146532 	 4.597275 	 4.964258 	 0.813937 	 0.765313 	 0.728250 	  
 5.188671 	 5.515320 	 3.856001 	 0.812562 	 0.767188 	 0.730500 	  
 6.517007 	 5.251225 	 4.712738 	 0.815500 	 0.766437 	 0.728313 	  
 14.408421 	 3.830141 	 7.023571 	 0.812750 	 0.765313 	 0.729750 	  
 18.872887 	 4.735610 	 6.056794 	 0.814813 	 0.767563 	 0.729938 	  
 15.383058 	 7.414290 	 3.981761 	 0.814438 	 0.765500 	 0.728250 	  
 10.777113 	 7.552625 	 0.311153 	 0.812688 	 0.766500 	 0.730375 	  
 5.102211 	 5.339256 	 -0.089706 	 0.815438 	 0.766625 	 0.728375 	  
 1.345144 	 4.924250 	 -1.237262 	 0.812688 	 0.765313 	 0.729563 	  
 4.677773 	 5.628504 	 3.242923 	 0.814875 	 0.767500 	 0.729812 	  
 12.050429 	 6.823220 	 -0.702784 	 0.814500 	 0.765250 	 0.728313 	  
 15.288738 	 8.118543 	 0.248273 	 0.812438 	 0.766687 	 0.730250 	  
 13.889663 	 8.395215 	 -0.867844 	 0.815562 	 0.766687 	 0.728250 	  
 9.323018 	 9.439019 	 1.018550 	 0.812688 	 0.765375 	 0.729187 	  
 4.151155 	 9.061740 	 3.549462 	 0.814625 	 0.767250 	 0.729938 	  
 0.441247 	 7.137619 	 4.288300 	 0.814000 	 0.765250 	 0.728187 	  
 4.041115 	 5.477592 	 0.594112 	 0.812562 	 0.767000 	 0.730250 	  
 11.099372 	 6.219574 	 1.592328 	 0.815312 	 0.766188 	 0.728375 	  
 15.092239 	 7.225650 	 1.018550 	 0.812625 	 0.765313 	 0.729938 	  
 13.913243 	 6.496245 	 -1.386602 	 0.815438 	 0.767125 	 0.729187 	  
 8.340521 	 6.508821 	 -1.300142 	 0.813375 	 0.765375 	 0.728187 	  
 2.060401 	 6.936403 	 1.670928 	 0.812562 	 0.767813 	 0.730313 	  
 0.700626 	 6.219574 	 -0.781384 	 0.815688 	 0.765938 	 0.728250 	  
 6.831406 	 6.081238 	 2.464786 	 0.812625 	 0.766437 	 0.730375 	  
 14.109742 	 5.050009 	 4.398339 	 0.815312 	 0.767000 	 0.728375 	  
 16.593494 	 5.389560 	 0.853491 	 0.812875 	 0.765687 	 0.728875 	  
 14.416281 	 6.181846 	 1.246490 	 0.814063 	 0.767375 	 0.730375 	  
 7.452344 	 5.968054 	 1.301509 	 0.814688 	 0.765500 	 0.728313 	  
 0.708486 	 4.811066 	 -1.017183 	 0.812750 	 0.767125 	 0.730250 	  
 0.433387 	 3.578622 	 2.040347 	 0.815438 	 0.766750 	 0.728375 	  
 8.002542 	 3.691806 	 2.032487 	 0.812688 	 0.765437 	 0.729875 	  
 14.856440 	 5.138041 	 3.392263 	 0.815188 	 0.767313 	 0.729563 	  
 16.302675 	 6.961555 	 5.325816 	 0.814562 	 0.765500 	 0.728250 	  
 13.976123 	 7.338834 	 4.547679 	 0.812500 	 0.766000 	 0.730375 	  
 8.206901 	 7.628081 	 0.617692 	 0.815375 	 0.767062 	 0.728375 	  
 2.759939 	 8.256879 	 3.494442 	 0.812750 	 0.765375 	 0.729000 	  
 3.498777 	 6.596852 	 3.101444 	 0.814688 	 0.767563 	 0.730063 	  
 9.464497 	 5.012282 	 2.095367 	 0.814438 	 0.765500 	 0.728250 	  
 15.453798 	 5.766839 	 1.773108 	 0.812750 	 0.766563 	 0.730187 	  
 18.448448 	 6.798068 	 4.657719 	 0.815438 	 0.767188 	 0.728500 	  
 16.750694 	 7.665809 	 4.154680 	 0.812750 	 0.765437 	 0.728437 	  
 9.535237 	 8.219151 	 3.856001 	 0.813250 	 0.767375 	 0.730313 	  
 1.368724 	 9.338412 	 4.076080 	 0.815312 	 0.765437 	 0.728250 	  
 1.714562 	 10.118121 	 6.952831 	 0.812500 	 0.766125 	 0.730250 	  
 9.032199 	 8.873101 	 4.657719 	 0.815500 	 0.766938 	 0.728313 	  
 14.542041 	 8.470670 	 5.710955 	 0.812937 	 0.765375 	 0.728313 	  
 13.528104 	 9.288108 	 5.451576 	 0.812688 	 0.767500 	 0.730375 	  
 9.401618 	 10.973286 	 3.706662 	 0.815500 	 0.765563 	 0.728125 	  
 4.937152 	 12.042243 	 3.054284 	 0.812625 	 0.765250 	 0.730187 	  
 2.657759 	 11.866179 	 2.173967 	 0.815250 	 0.767750 	 0.728875 	  
 6.619187 	 10.294184 	 0.641272 	 0.813063 	 0.765313 	 0.728125 	  
 10.769253 	 6.735188 	 -0.474845 	 0.812875 	 0.767250 	 0.730313 	  
 10.509874 	 3.616350 	 2.236846 	 0.815250 	 0.765437 	 0.728250 	  
 8.482001 	 4.333180 	 -2.455558 	 0.812500 	 0.765750 	 0.730250 	  
 4.669913 	 6.408213 	 -2.204039 	 0.815625 	 0.767250 	 0.728437 	  
 -1.060009 	 6.810644 	 -3.548095 	 0.812688 	 0.765563 	 0.729500 	  
 -3.064302 	 4.282876 	 -2.345519 	 0.815500 	 0.768000 	 0.729187 	  
 3.742436 	 3.025280 	 -3.438055 	 0.813500 	 0.765875 	 0.728187 	  
 10.839993 	 4.270300 	 1.057850 	 0.812500 	 0.767750 	 0.730313 	  
 13.708884 	 4.899098 	 3.439422 	 0.815375 	 0.765813 	 0.728313 	  
 12.011129 	 4.949402 	 5.042857 	 0.812625 	 0.765563 	 0.730250 	  
 7.711723 	 5.389560 	 3.824561 	 0.815438 	 0.767375 	 0.728812 	  
 4.182594 	 7.301106 	 5.608775 	 0.813250 	 0.765563 	 0.728437 	  
 6.241908 	 8.131119 	 2.700585 	 0.812688 	 0.767313 	 0.730250 	  
 13.441644 	 7.489745 	 1.207190 	 0.815500 	 0.766000 	 0.728250 	  
 16.373415 	 7.049587 	 1.325089 	 0.812500 	 0.765563 	 0.730375 	  
 13.638144 	 6.093814 	 1.922447 	 0.815375 	 0.767625 	 0.728938 	  
 10.281935 	 5.880023 	 1.969607 	 0.813188 	 0.765500 	 0.728125 	  
 7.326584 	 7.338834 	 4.657719 	 0.812438 	 0.767563 	 0.730437 	  
 3.428037 	 9.162348 	 4.445499 	 0.815375 	 0.766125 	 0.728187 	  
 3.608816 	 10.118121 	 2.637705 	 0.812562 	 0.765563 	 0.730187 	  
 9.079359 	 9.501899 	 4.131100 	 0.815438 	 0.767687 	 0.728875 	  
 14.133322 	 9.451595 	 4.877798 	 0.813188 	 0.765813 	 0.728250 	  
 13.866083 	 9.791146 	 5.435856 	 0.812813 	 0.767625 	 0.730250 	  
 9.755316 	 9.866602 	 4.099660 	 0.815500 	 0.766062 	 0.728313 	  
 5.377311 	 10.181001 	 4.217560 	 0.812500 	 0.765625 	 0.730187 	  
 2.492700 	 10.935558 	 3.903161 	 0.815438 	 0.767188 	 0.729187 	  
 4.779953 	 11.300261 	 -1.410182 	 0.813750 	 0.765437 	 0.728125 	  
 10.494154 	 10.583431 	 2.331166 	 0.812438 	 0.767188 	 0.730250 	  
 12.687087 	 8.432942 	 1.639488 	 0.815562 	 0.766188 	 0.728187 	  
 11.358751 	 7.602929 	 -0.647764 	 0.812625 	 0.765062 	 0.730063 	  
 5.801749 	 8.910829 	 1.042130 	 0.815250 	 0.767250 	 0.729250 	  
 -3.032862 	 9.803722 	 2.409766 	 0.813813 	 0.765313 	 0.728063 	  
 -4.856376 	 8.948557 	 -1.410182 	 0.812625 	 0.767125 	 0.730250 	  
 3.317997 	 7.690961 	 1.230770 	 0.815312 	 0.766062 	 0.728187 	  
 11.272292 	 7.313682 	 1.356529 	 0.812625 	 0.765563 	 0.730125 	  
 13.080086 	 6.936403 	 2.504085 	 0.815438 	 0.767375 	 0.728812 	  
 8.301221 	 7.238226 	 2.684865 	 0.812937 	 0.765313 	 0.728125 	  
 2.893559 	 6.219574 	 0.279713 	 0.813000 	 0.767625 	 0.730375 	  
 -0.989269 	 4.484091 	 -0.632044 	 0.815500 	 0.765625 	 0.728250 	  
 1.266544 	 4.408635 	 0.429052 	 0.812500 	 0.767125 	 0.730375 	  
 9.629557 	 3.855293 	 3.077864 	 0.815438 	 0.766813 	 0.728250 	  
 15.736757 	 4.471515 	 1.372249 	 0.812688 	 0.765563 	 0.729750 	  
 16.648514 	 4.559547 	 4.052500 	 0.815000 	 0.767375 	 0.729688 	  
 14.133322 	 4.370908 	 1.529449 	 0.814250 	 0.765750 	 0.728187 	  
 9.244418 	 4.144540 	 1.395829 	 0.812625 	 0.767375 	 0.730375 	  
 4.567733 	 3.478014 	 3.714522 	 0.815500 	 0.766313 	 0.728313 	  
 7.609543 	 4.446363 	 1.105010 	 0.812562 	 0.765625 	 0.729625 	  
 16.192636 	 5.854871 	 0.924231 	 0.814813 	 0.767500 	 0.729875 	  
 18.967207 	 6.458517 	 0.790611 	 0.814063 	 0.765313 	 0.728063 	  
 17.010073 	 4.157116 	 1.262210 	 0.812500 	 0.767250 	 0.730437 	  
 13.983983 	 0.296297 	 2.661285 	 0.815500 	 0.766313 	 0.728125 	  
 9.275858 	 -0.747508 	 5.773835 	 0.812688 	 0.765437 	 0.729563 	  
 4.662053 	 0.610696 	 3.376543 	 0.814625 	 0.767125 	 0.730125 	  
 3.805316 	 3.025280 	 -1.685281 	 0.815063 	 0.765687 	 0.728187 	  
 8.576320 	 5.829719 	 -0.239046 	 0.812625 	 0.766375 	 0.730250 	  
 14.314102 	 7.225650 	 4.508379 	 0.815375 	 0.766813 	 0.728250 	  
 17.921830 	 9.174924 	 5.773835 	 0.812625 	 0.765750 	 0.729125 	  
 16.900033 	 9.439019 	 5.011417 	 0.814438 	 0.767437 	 0.730187 	  
 10.942173 	 8.709614 	 6.394773 	 0.815063 	 0.765563 	 0.728187 	  
 5.958949 	 8.785069 	 1.820268 	 0.812688 	 0.766000 	 0.730313 	  
 8.246201 	 9.262956 	 -1.520221 	 0.815500 	 0.767313 	 0.728437 	  
 12.545607 	 8.307183 	 -4.114013 	 0.812875 	 0.765500 	 0.728250 	  
 12.789267 	 6.898675 	 -2.730658 	 0.813312 	 0.767437 	 0.730250 	  
 7.758883 	 8.583854 	 -2.274779 	 0.815063 	 0.765687 	 0.728063 	  
 2.665619 	 10.294184 	 -4.310512 	 0.812562 	 0.765938 	 0.730063 	  
 -1.327248 	 7.615505 	 -5.403049 	 0.815312 	 0.766813 	 0.728375 	  
 -1.099308 	 3.930749 	 -2.950737 	 0.812688 	 0.765563 	 0.729313 	  
 6.886426 	 2.648001 	 -0.388385 	 0.815375 	 0.767188 	 0.729313 	  
 14.117602 	 3.968477 	 0.955671 	 0.813625 	 0.765500 	 0.728187 	  
 14.950760 	 4.546971 	 2.126807 	 0.812438 	 0.767437 	 0.730313 	  
 9.543097 	 5.075161 	 2.103227 	 0.815625 	 0.766000 	 0.728187 	  
 1.958222 	 6.257301 	 2.441206 	 0.812625 	 0.765687 	 0.730250 	  
 -2.034645 	 7.037011 	 -2.306219 	 0.815312 	 0.767437 	 0.728563 	  
 1.761722 	 7.137619 	 -1.771741 	 0.812875 	 0.765875 	 0.728563 	  
 10.344815 	 4.899098 	 2.150387 	 0.814188 	 0.767750 	 0.730187 	  
 14.078302 	 2.082083 	 6.308313 	 0.814500 	 0.765813 	 0.728187 	  
 13.528104 	 1.402981 	 3.407983 	 0.812562 	 0.767375 	 0.730250 	  
 13.575264 	 1.792836 	 1.663068 	 0.815438 	 0.766437 	 0.728313 	  
 10.612054 	 2.534818 	 4.414059 	 0.812625 	 0.765687 	 0.729563 	  
 8.324801 	 2.522242 	 6.103954 	 0.815000 	 0.767625 	 0.729688 	  
 13.889663 	 3.113312 	 9.098604 	 0.813937 	 0.765500 	 0.728187 	  
 21.380219 	 5.791991 	 6.638432 	 0.812562 	 0.767625 	 0.730250 	  
 22.873614 	 8.030512 	 7.487309 	 0.815500 	 0.766625 	 0.728250 	  
 20.169783 	 8.772493 	 3.714522 	 0.812688 	 0.765500 	 0.729187 	  
 14.919320 	 8.961133 	 1.112870 	 0.814500 	 0.767563 	 0.730000 	  
 6.296928 	 9.652810 	 0.641272 	 0.814312 	 0.765750 	 0.728187 	  
 3.011458 	 9.024013 	 3.219343 	 0.812688 	 0.767125 	 0.730125 	  
 7.090785 	 6.810644 	 4.728458 	 0.815438 	 0.766563 	 0.728375 	  
 10.643494 	 6.533973 	 6.213993 	 0.812562 	 0.765687 	 0.729500 	  
 11.350891 	 8.646734 	 4.398339 	 0.814937 	 0.767500 	 0.729938 	  
 10.399834 	 10.872679 	 4.547679 	 0.814500 	 0.765500 	 0.728313 	  
 7.554524 	 11.023590 	 1.537309 	 0.812562 	 0.766563 	 0.730313 	  
 3.207958 	 10.042665 	 -0.514145 	 0.815562 	 0.767375 	 0.728437 	  
 2.980018 	 8.583854 	 0.232553 	 0.812625 	 0.765563 	 0.728938 	  
 9.040059 	 6.546549 	 -0.105426 	 0.815000 	 0.767313 	 0.729688 	  
 11.665290 	 5.150617 	 5.695235 	 0.814125 	 0.765250 	 0.728063 	  
 8.332661 	 4.823642 	 4.775618 	 0.812625 	 0.766813 	 0.730187 	  
 4.787812 	 5.414712 	 5.341536 	 0.815312 	 0.766313 	 0.728375 	  
 3.506637 	 7.703537 	 5.640215 	 0.812562 	 0.765125 	 0.729187 	  
 0.724206 	 9.627659 	 0.570532 	 0.814688 	 0.767000 	 0.729938 	  
 -0.564830 	 10.067817 	 2.763465 	 0.814188 	 0.765188 	 0.728187 	  
 6.147588 	 9.476747 	 2.834204 	 0.812688 	 0.767250 	 0.730187 	  
 12.050429 	 8.961133 	 1.450849 	 0.815438 	 0.766125 	 0.728250 	  
 11.555251 	 7.980208 	 4.579119 	 0.812625 	 0.765563 	 0.730063 	  
 10.690653 	 7.200498 	 4.052500 	 0.815438 	 0.767625 	 0.729250 	  
 8.497720 	 6.860948 	 3.227203 	 0.813688 	 0.765375 	 0.728125 	  
 5.675990 	 6.056086 	 2.645565 	 0.812562 	 0.767250 	 0.730375 	  
 6.414827 	 5.641079 	 3.180043 	 0.815562 	 0.765938 	 0.728313 	  
 11.303731 	 6.332757 	 1.859568 	 0.812750 	 0.765813 	 0.730250 	  
 13.418065 	 4.999706 	 3.533742 	 0.815438 	 0.767500 	 0.728812 	  
 12.349108 	 4.609851 	 -1.433762 	 0.813250 	 0.765563 	 0.728187 	  
 8.733520 	 4.484091 	 -1.205822 	 0.812625 	 0.767375 	 0.730313 	  
 2.406240 	 4.685307 	 -1.441622 	 0.815500 	 0.765813 	 0.728250 	  
 -0.981409 	 6.395637 	 -3.115796 	 0.812438 	 0.765563 	 0.730375 	  
 3.844616 	 5.842295 	 1.835988 	 0.815375 	 0.767563 	 0.728688 	  
 9.574537 	 3.905597 	 0.649132 	 0.813125 	 0.765313 	 0.728000 	  
 11.122952 	 4.597275 	 1.961747 	 0.812562 	 0.767375 	 0.730375 	  
 8.772820 	 7.690961 	 3.250783 	 0.815500 	 0.765938 	 0.728187 	  
 6.265488 	 9.250380 	 4.162540 	 0.812688 	 0.765687 	 0.730187 	  
 4.324074 	 8.998861 	 2.629845 	 0.815250 	 0.767563 	 0.728938 	  
 3.797456 	 9.426443 	 1.466569 	 0.813500 	 0.765750 	 0.728125 	  
 9.495937 	 9.036588 	 1.136450 	 0.812625 	 0.767625 	 0.730250 	  
 15.500958 	 8.244303 	 -0.482705 	 0.815438 	 0.766000 	 0.728313 	  
 16.679954 	 9.200076 	 1.348669 	 0.812500 	 0.765938 	 0.730250 	  
 15.736757 	 10.306760 	 1.466569 	 0.815500 	 0.767750 	 0.728938 	  
 10.329095 	 9.313260 	 1.301509 	 0.813500 	 0.765437 	 0.728187 	  
 3.200098 	 6.898675 	 0.625552 	 0.812562 	 0.767250 	 0.730437 	  
 1.950362 	 5.276377 	 1.105010 	 0.815500 	 0.766000 	 0.728187 	  
 6.996465 	 5.641079 	 -4.687791 	 0.812562 	 0.765875 	 0.730187 	  
 9.739596 	 6.609428 	 -3.650275 	 0.815250 	 0.767687 	 0.729000 	  
 7.200825 	 5.339256 	 0.877071 	 0.813375 	 0.765750 	 0.728063 	  
 5.581670 	 4.006205 	 4.382619 	 0.812562 	 0.767375 	 0.730187 	  
 4.017535 	 5.540472 	 3.675222 	 0.815312 	 0.765938 	 0.728250 	  
 3.797456 	 8.847949 	 1.796688 	 0.812625 	 0.765500 	 0.730250 	  
 7.004325 	 10.382216 	 5.608775 	 0.815562 	 0.767250 	 0.728812 	  
 11.555251 	 10.067817 	 3.659502 	 0.813250 	 0.765437 	 0.728250 	  
 12.553467 	 7.791569 	 -0.490565 	 0.812500 	 0.767563 	 0.730375 	  
 13.465224 	 6.433365 	 -2.589178 	 0.815625 	 0.766188 	 0.728250 	  
 14.172622 	 6.860948 	 -1.559521 	 0.812625 	 0.766500 	 0.730375 	  
 11.625990 	 6.936403 	 -3.202256 	 0.815375 	 0.767188 	 0.728375 	  
 7.648843 	 6.609428 	 2.016767 	 0.812813 	 0.765875 	 0.729625 	  
 8.961459 	 5.905175 	 2.747745 	 0.815250 	 0.767750 	 0.729437 	  
 13.300165 	 6.533973 	 2.598405 	 0.813688 	 0.765938 	 0.728250 	  
 17.222292 	 8.219151 	 1.427269 	 0.812813 	 0.767750 	 0.730250 	  
 16.679954 	 9.237804 	 3.352963 	 0.815438 	 0.766875 	 0.728375 	  
 10.674933 	 8.382639 	 2.637705 	 0.812688 	 0.765938 	 0.729938 	  
 4.724933 	 5.892599 	 4.076080 	 0.815125 	 0.767687 	 0.729750 	  
 3.860335 	 3.515742 	 -1.245122 	 0.813875 	 0.765625 	 0.728313 	  
 8.411261 	 3.490590 	 1.191470 	 0.812438 	 0.767687 	 0.730375 	  
 12.223348 	 5.276377 	 2.142527 	 0.815500 	 0.766375 	 0.728250 	  
 11.272292 	 5.867447 	 0.429052 	 0.812500 	 0.765437 	 0.730250 	  
 8.882859 	 5.628504 	 1.238630 	 0.815375 	 0.767687 	 0.729187 	  
 5.282991 	 6.282453 	 2.889224 	 0.813312 	 0.765875 	 0.728187 	  
 1.321564 	 7.250802 	 3.942461 	 0.812625 	 0.767875 	 0.730313 	  
 1.832462 	 6.471093 	 4.421919 	 0.815438 	 0.766500 	 0.728313 	  
 8.159742 	 5.691383 	 7.086451 	 0.812625 	 0.766000 	 0.730313 	  
 13.520244 	 5.892599 	 6.685592 	 0.815438 	 0.767813 	 0.728750 	  
 14.856440 	 7.162771 	 7.188630 	 0.813250 	 0.765687 	 0.728250 	  
 13.347325 	 7.288530 	 6.339753 	 0.812500 	 0.767875 	 0.730250 	  
 8.073282 	 5.452440 	 5.860295 	 0.815625 	 0.766750 	 0.728125 	  
 2.099701 	 5.188345 	 4.885658 	 0.812625 	 0.765500 	 0.730125 	  
 3.255117 	 7.074739 	 1.710228 	 0.815375 	 0.767563 	 0.729187 	  
 10.674933 	 8.131119 	 -0.938583 	 0.813562 	 0.765875 	 0.728063 	  
 14.227642 	 7.049587 	 2.991404 	 0.812500 	 0.767437 	 0.730313 	  
 11.515951 	 6.181846 	 1.427269 	 0.815375 	 0.766188 	 0.728250 	  
 6.131868 	 8.206575 	 1.914587 	 0.812625 	 0.765500 	 0.730125 	  
 3.773876 	 10.596007 	 1.246490 	 0.815375 	 0.767563 	 0.728938 	  
 2.374800 	 11.966787 	 2.260426 	 0.813188 	 0.765437 	 0.728375 	  
 2.767799 	 11.149350 	 5.467296 	 0.812750 	 0.767500 	 0.730250 	  
 7.295144 	 10.507976 	 3.132883 	 0.815500 	 0.765813 	 0.728187 	  
 12.891446 	 11.627236 	 2.142527 	 0.812625 	 0.766062 	 0.730375 	  
 12.349108 	 10.809799 	 2.480506 	 0.815375 	 0.767188 	 0.728437 	  
 7.971102 	 8.458094 	 5.883875 	 0.812937 	 0.765500 	 0.728938 	  
 5.558090 	 6.697460 	 4.665579 	 0.814375 	 0.767625 	 0.730250 	  
 7.696003 	 8.043088 	 5.294376 	 0.814625 	 0.765500 	 0.728250 	  
 13.418065 	 7.829296 	 3.392263 	 0.812813 	 0.766625 	 0.730250 	  
 16.766414 	 4.333180 	 0.719871 	 0.815375 	 0.766875 	 0.728375 	  
 14.769980 	 2.748609 	 1.246490 	 0.812625 	 0.765750 	 0.729563 	  
 11.696730 	 2.522242 	 1.977467 	 0.814937 	 0.767500 	 0.729938 	  
 9.833916 	 1.076006 	 3.494442 	 0.814625 	 0.765500 	 0.728250 	  
 8.702080 	 0.484936 	 4.123240 	 0.812562 	 0.767000 	 0.730250 	  
 7.562384 	 1.302374 	 3.918881 	 0.815500 	 0.767188 	 0.728313 	  
 10.887153 	 3.415135 	 2.826344 	 0.812813 	 0.765687 	 0.728563 	  
 13.646004 	 4.219996 	 2.771325 	 0.814188 	 0.767500 	 0.730313 	  
 14.612781 	 3.905597 	 4.665579 	 0.815125 	 0.765625 	 0.728187 	  
 14.101882 	 3.163616 	 2.621985 	 0.812625 	 0.765875 	 0.730187 	  
 10.722093 	 4.094236 	 0.774891 	 0.815375 	 0.767625 	 0.728563 	  
 4.599173 	 5.590776 	 1.875288 	 0.812937 	 0.765750 	 0.728375 	  
 2.429820 	 5.439864 	 -0.993603 	 0.813375 	 0.767563 	 0.730250 	  
 7.460204 	 5.112889 	 -0.270486 	 0.815000 	 0.765687 	 0.728313 	  
 12.136889 	 5.062585 	 0.248273 	 0.812562 	 0.766437 	 0.730437 	  
 11.060072 	 4.974554 	 0.641272 	 0.815562 	 0.767062 	 0.728375 	  
 7.027905 	 5.276377 	 1.411549 	 0.812813 	 0.765250 	 0.728563 	  
