[MyosystemBr1 Versão 3.5.61]
[Informações gerais]
	[Descrição geral] = 
	[Número de amostras por canal] = 50001.000000
	[Duração] = 25.000000 seg
	[Taxa de amostragem por canal] = 2000 Hz
	[Número de canais]  = 7
	[Canais utilizados] = 2	3	4	9	10	11	12	
[Informações sobre canais]
	[canal 1]
		Tipo de eletrodo = Passivo
		Descrição = 
		Unidade = uV
		Freqüência = 2000
		Filtro passa alta = 20.000000 Hz
		Filtro passa baixa = 500.000000 Hz
		Ganho do eletrodo = 20.000000
		Ganho do eletromiógrafo = 397.584015
		Tempo = 25.000000
	[canal 2]
		Tipo de eletrodo = Ativo
		Descrição = 
		Unidade = uV
		Freqüência = 2000
		Filtro passa alta = 20.000000 Hz
		Filtro passa baixa = 500.000000 Hz
		Ganho do eletrodo = 20.000000
		Ganho do eletromiógrafo = 397.583984
		Tempo = 25.000000
	[canal 3]
		Tipo de eletrodo = Ativo
		Descrição = 
		Unidade = uV
		Freqüência = 2000
		Filtro passa alta = 20.000000 Hz
		Filtro passa baixa = 500.000000 Hz
		Ganho do eletrodo = 20.000000
		Ganho do eletromiógrafo = 248.489990
		Tempo = 25.000000
	[canal 4]
		Tipo de eletrodo = Ativo
		Descrição = 
		Unidade = uV
		Freqüência = 2000
		Filtro passa alta = 20.000000 Hz
		Filtro passa baixa = 500.000000 Hz
		Ganho do eletrodo = 20.000000
		Ganho do eletromiógrafo = 397.583984
		Tempo = 25.000000
	[canal 5]
		Tipo de eletrodo = Passivo
		Descrição = 
		Unidade = uV
		Freqüência = 2000
		Filtro passa alta = 20.000000 Hz
		Filtro passa baixa = 1000.000000 Hz
		Ganho do eletrodo = 20.000000
		Ganho do eletromiógrafo = 397.584015
		Tempo = 25.000000
	[canal 6]
		Tipo de eletrodo = Passivo
		Descrição = 
		Unidade = uV
		Freqüência = 2000
		Filtro passa alta = 20.000000 Hz
		Filtro passa baixa = 1000.000000 Hz
		Ganho do eletrodo = 20.000000
		Ganho do eletromiógrafo = 397.584015
		Tempo = 25.000000
	[canal 7]
		Tipo de eletrodo = Passivo
		Descrição = 
		Unidade = uV
		Freqüência = 2000
		Filtro passa alta = 20.000000 Hz
		Filtro passa baixa = 1000.000000 Hz
		Ganho do eletrodo = 20.000000
		Ganho do eletromiógrafo = 397.584015
		Tempo = 25.000000
	[canal 8]
		Tipo de eletrodo = Passivo
		Descrição = 
		Unidade = uV
		Freqüência = 2000
		Filtro passa alta = 20.000000 Hz
		Filtro passa baixa = 1000.000000 Hz
		Ganho do eletrodo = 20.000000
		Ganho do eletromiógrafo = 397.584015
		Tempo = 25.000000
	[canal 9]
		Fonte de sinal auxiliar = Entrada em volts
		Descrição = 
		Unidade = V
		Freqüência = 2000
		Filtro passa alta = 0.000000 Hz
		Filtro passa baixa = 100000.000000 Hz
		Ganho do eletrodo = 1.000000
		Ganho do eletromiógrafo = 1.000000
		Tempo = 25.000000
	[canal 10]
		Fonte de sinal auxiliar = Entrada em volts
		Descrição = 
		Unidade = V
		Freqüência = 2000
		Filtro passa alta = 0.000000 Hz
		Filtro passa baixa = 100000.000000 Hz
		Ganho do eletrodo = 1.000000
		Ganho do eletromiógrafo = 1.000000
		Tempo = 25.000000
	[canal 11]
		Fonte de sinal auxiliar = Entrada em volts
		Descrição = 
		Unidade = V
		Freqüência = 2000
		Filtro passa alta = 0.000000 Hz
		Filtro passa baixa = 100000.000000 Hz
		Ganho do eletrodo = 1.000000
		Ganho do eletromiógrafo = 1.000000
		Tempo = 25.000000
	[canal 12]
		Fonte de sinal auxiliar = Entrada em volts
		Descrição = 
		Unidade = V
		Freqüência = 2000
		Filtro passa alta = 0.000000 Hz
		Filtro passa baixa = 100000.000000 Hz
		Ganho do eletrodo = 1.000000
		Ganho do eletromiógrafo = 1.000000
		Tempo = 25.000000
[Dados]
10.879293 	 8.470670 	 9.263664 	 0.914500 	 0.728875 	 0.722375 	 0.077250 	  
 14.180482 	 10.080393 	 10.324760 	 0.916687 	 0.729688 	 0.721500 	 0.052937 	  
 21.317339 	 10.696615 	 7.809568 	 0.916813 	 0.729750 	 0.721688 	 0.053625 	  
 27.424539 	 11.526628 	 12.643453 	 0.914625 	 0.730313 	 0.723313 	 0.057063 	  
 28.980814 	 10.684039 	 5.954614 	 0.914563 	 0.731125 	 0.723375 	 0.058000 	  
 26.544222 	 8.043088 	 2.653425 	 0.915938 	 0.730625 	 0.721938 	 0.059125 	  
 24.492769 	 5.716535 	 7.487309 	 0.917000 	 0.731063 	 0.721875 	 0.040188 	  
 22.354856 	 3.679230 	 6.434073 	 0.917125 	 0.730750 	 0.721812 	 0.042563 	  
 21.018660 	 4.295452 	 3.800981 	 0.916250 	 0.730563 	 0.721750 	 0.062500 	  
 18.024010 	 8.244303 	 7.062871 	 0.917063 	 0.731125 	 0.721875 	 0.041063 	  
 14.416281 	 10.847527 	 9.585923 	 0.914500 	 0.730625 	 0.723375 	 0.060937 	  
 11.681010 	 11.149350 	 11.401577 	 0.917125 	 0.730625 	 0.721812 	 0.041313 	  
 11.948249 	 13.161503 	 9.570203 	 0.914813 	 0.730563 	 0.723250 	 0.059813 	  
 11.869650 	 11.375717 	 9.342263 	 0.916750 	 0.729625 	 0.721562 	 0.053187 	  
 11.625990 	 8.508398 	 6.811352 	 0.914438 	 0.730938 	 0.723375 	 0.049875 	  
 9.881076 	 9.967209 	 6.418353 	 0.914563 	 0.729250 	 0.722812 	 0.070750 	  
 8.607760 	 12.960288 	 8.281167 	 0.916563 	 0.729563 	 0.721500 	 0.055750 	  
 5.841049 	 13.727421 	 10.419080 	 0.913938 	 0.730500 	 0.723187 	 0.061625 	  
 4.300494 	 13.903485 	 10.757059 	 0.915375 	 0.728313 	 0.721313 	 0.082937 	  
 4.724933 	 14.356219 	 6.441933 	 0.915063 	 0.729500 	 0.722625 	 0.061375 	  
 3.585236 	 13.563934 	 4.995697 	 0.913938 	 0.728187 	 0.721688 	 0.082687 	  
 2.807099 	 10.570856 	 6.245433 	 0.915750 	 0.728938 	 0.721250 	 0.061312 	  
 3.773876 	 7.741265 	 5.388696 	 0.913625 	 0.726938 	 0.722562 	 0.085562 	  
 3.435897 	 6.559125 	 9.161484 	 0.915938 	 0.727625 	 0.721125 	 0.062312 	  
 4.355514 	 7.389138 	 2.126807 	 0.913813 	 0.728750 	 0.722750 	 0.061250 	  
 5.620970 	 8.344911 	 5.082157 	 0.913625 	 0.727563 	 0.722688 	 0.082562 	  
 6.603467 	 10.181001 	 1.977467 	 0.913563 	 0.727250 	 0.722750 	 0.080187 	  
 6.807826 	 12.557857 	 1.867428 	 0.913938 	 0.727938 	 0.722750 	 0.076625 	  
 4.685633 	 11.903907 	 1.914587 	 0.913938 	 0.728375 	 0.723063 	 0.071063 	  
 2.421960 	 9.564779 	 4.759898 	 0.914000 	 0.729313 	 0.723063 	 0.061875 	  
 3.710996 	 7.037011 	 0.326873 	 0.913875 	 0.729375 	 0.723063 	 0.061937 	  
 4.945012 	 5.364408 	 -1.787461 	 0.914438 	 0.728250 	 0.721438 	 0.075750 	  
 4.347654 	 5.402136 	 -4.114013 	 0.916438 	 0.729875 	 0.722063 	 0.050188 	  
 3.522357 	 6.131542 	 0.641272 	 0.915813 	 0.730250 	 0.722250 	 0.050750 	  
 4.473414 	 6.710036 	 -4.679931 	 0.916875 	 0.729250 	 0.721375 	 0.066750 	  
 7.358024 	 7.514897 	 -4.546312 	 0.914750 	 0.729938 	 0.723187 	 0.069625 	  
 10.274075 	 7.577777 	 0.696291 	 0.916813 	 0.731375 	 0.722187 	 0.044625 	  
 9.896796 	 4.521819 	 1.576609 	 0.915750 	 0.731437 	 0.722812 	 0.043625 	  
 6.304788 	 -2.030256 	 -4.145453 	 0.915063 	 0.730437 	 0.722688 	 0.062750 	  
 2.555580 	 -9.965686 	 -1.622401 	 0.917250 	 0.730437 	 0.721812 	 0.046812 	  
 3.986095 	 -14.882886 	 -3.037197 	 0.917375 	 0.730500 	 0.721750 	 0.058375 	  
 11.350891 	 -11.940112 	 -3.870354 	 0.915875 	 0.730437 	 0.721688 	 0.063188 	  
 15.328038 	 -2.784813 	 -4.011833 	 0.916875 	 0.731063 	 0.721938 	 0.050250 	  
 12.474868 	 3.050432 	 1.961747 	 0.916375 	 0.731625 	 0.722562 	 0.041813 	  
 6.265488 	 1.868292 	 -3.886074 	 0.915375 	 0.729938 	 0.721500 	 0.067437 	  
 3.742436 	 1.742532 	 1.380109 	 0.917000 	 0.731250 	 0.722313 	 0.042938 	  
 4.654193 	 5.075161 	 0.083213 	 0.914875 	 0.729750 	 0.723250 	 0.067437 	  
 7.601683 	 6.848372 	 7.448009 	 0.916813 	 0.729938 	 0.721625 	 0.050500 	  
 10.722093 	 9.011437 	 8.532686 	 0.914250 	 0.731125 	 0.723438 	 0.048938 	  
 11.484511 	 14.846682 	 6.072514 	 0.914750 	 0.728875 	 0.721625 	 0.070313 	  
 11.067932 	 18.770381 	 4.579119 	 0.916750 	 0.730437 	 0.721500 	 0.054750 	  
 8.010402 	 18.254767 	 9.625222 	 0.914125 	 0.729688 	 0.723125 	 0.068937 	  
 4.143295 	 13.802877 	 8.076807 	 0.915125 	 0.728187 	 0.721313 	 0.080500 	  
 3.695276 	 10.168425 	 13.122911 	 0.916063 	 0.729500 	 0.722000 	 0.058375 	  
 8.702080 	 8.395215 	 5.475156 	 0.914000 	 0.728063 	 0.722750 	 0.079938 	  
 14.204062 	 6.936403 	 9.082884 	 0.915875 	 0.728625 	 0.721000 	 0.063938 	  
 12.922886 	 5.515320 	 8.296887 	 0.913875 	 0.727563 	 0.722562 	 0.088563 	  
 7.358024 	 4.471515 	 7.613069 	 0.915750 	 0.727500 	 0.721000 	 0.075000 	  
 4.457694 	 3.654078 	 8.226147 	 0.915875 	 0.728500 	 0.721187 	 0.061187 	  
 4.874272 	 2.295874 	 10.757059 	 0.915938 	 0.728812 	 0.721187 	 0.058688 	  
 5.306571 	 1.604197 	 9.114324 	 0.915687 	 0.727875 	 0.721000 	 0.079563 	  
 4.622753 	 0.019626 	 8.178987 	 0.914000 	 0.727125 	 0.721250 	 0.084000 	  
 5.974669 	 1.113734 	 5.781695 	 0.913875 	 0.727938 	 0.722688 	 0.083687 	  
 6.682066 	 5.942903 	 7.793848 	 0.916250 	 0.729688 	 0.721375 	 0.057750 	  
 4.897852 	 7.955056 	 4.704878 	 0.916188 	 0.729437 	 0.721438 	 0.053687 	  
 2.602740 	 6.269877 	 5.152897 	 0.916250 	 0.730125 	 0.721875 	 0.054187 	  
 4.504853 	 6.961555 	 2.614125 	 0.917000 	 0.729625 	 0.721375 	 0.054312 	  
 12.411988 	 9.690538 	 7.290810 	 0.915125 	 0.729000 	 0.721500 	 0.072188 	  
 19.258026 	 9.476747 	 5.207917 	 0.915875 	 0.729563 	 0.721500 	 0.068250 	  
 17.961130 	 6.194422 	 -0.710644 	 0.916938 	 0.729875 	 0.721500 	 0.066562 	  
 12.144749 	 2.962400 	 1.914587 	 0.914750 	 0.731000 	 0.723375 	 0.052625 	  
 11.570971 	 2.874368 	 5.066437 	 0.917563 	 0.730688 	 0.721750 	 0.057625 	  
 14.612781 	 6.609428 	 7.400850 	 0.915875 	 0.730563 	 0.721625 	 0.067750 	  
 12.042569 	 7.502321 	 8.076807 	 0.917312 	 0.730500 	 0.721750 	 0.054688 	  
 8.529160 	 6.571700 	 6.025354 	 0.917125 	 0.731250 	 0.721688 	 0.039938 	  
 11.201552 	 7.263378 	 5.333676 	 0.915375 	 0.732000 	 0.723500 	 0.041938 	  
 14.848580 	 8.646734 	 13.846029 	 0.915125 	 0.729938 	 0.721875 	 0.063188 	  
 16.059016 	 9.489323 	 9.067164 	 0.917063 	 0.731063 	 0.722313 	 0.041375 	  
 12.411988 	 8.923405 	 2.134667 	 0.915000 	 0.729563 	 0.722688 	 0.073625 	  
 7.640983 	 7.049587 	 0.900651 	 0.916875 	 0.731437 	 0.721938 	 0.041875 	  
 4.017535 	 4.823642 	 7.880308 	 0.914813 	 0.729125 	 0.723250 	 0.065500 	  
 6.076848 	 6.068662 	 3.250783 	 0.916875 	 0.729500 	 0.721500 	 0.051063 	  
 11.908949 	 11.828451 	 -1.017183 	 0.914500 	 0.730500 	 0.723313 	 0.054375 	  
 14.872160 	 17.286418 	 6.638432 	 0.914563 	 0.728750 	 0.722750 	 0.072063 	  
 14.204062 	 20.983750 	 4.649859 	 0.916625 	 0.729750 	 0.721500 	 0.055188 	  
 13.771763 	 25.158968 	 5.302236 	 0.914125 	 0.728375 	 0.723000 	 0.080437 	  
 14.942900 	 24.253499 	 4.728458 	 0.916312 	 0.727750 	 0.721063 	 0.067500 	  
 18.251949 	 20.204040 	 1.332949 	 0.915063 	 0.729187 	 0.722562 	 0.058000 	  
 17.159412 	 15.777303 	 3.800981 	 0.913875 	 0.727125 	 0.721125 	 0.090375 	  
 13.080086 	 12.759072 	 3.533742 	 0.916188 	 0.728938 	 0.721375 	 0.058813 	  
 7.963242 	 12.369218 	 1.663068 	 0.913750 	 0.727187 	 0.722688 	 0.081937 	  
 3.483057 	 13.790301 	 6.269013 	 0.915000 	 0.727125 	 0.720875 	 0.087438 	  
 -0.839929 	 14.066972 	 4.272580 	 0.915938 	 0.727875 	 0.720875 	 0.057063 	  
 -1.115028 	 14.934713 	 5.451576 	 0.916000 	 0.728563 	 0.721375 	 0.052937 	  
 3.789596 	 16.016246 	 6.213993 	 0.914687 	 0.727688 	 0.720750 	 0.085312 	  
 7.405184 	 12.394370 	 4.162540 	 0.914063 	 0.728875 	 0.722625 	 0.071438 	  
 8.835699 	 5.791991 	 3.266503 	 0.916125 	 0.728563 	 0.721250 	 0.055813 	  
 8.945739 	 3.528318 	 6.787772 	 0.914250 	 0.727938 	 0.722625 	 0.075813 	  
 7.963242 	 4.094236 	 3.250783 	 0.914500 	 0.728187 	 0.722438 	 0.079938 	  
 6.556307 	 4.219996 	 0.963530 	 0.916500 	 0.730375 	 0.721938 	 0.053062 	  
 6.210468 	 2.333602 	 0.106793 	 0.914438 	 0.730375 	 0.723063 	 0.051688 	  
 8.749240 	 -2.055408 	 0.106793 	 0.916875 	 0.729938 	 0.721500 	 0.050750 	  
 11.500231 	 -4.293928 	 -1.748161 	 0.914938 	 0.729812 	 0.723125 	 0.067500 	  
 10.981472 	 -4.734087 	 2.559105 	 0.915687 	 0.731375 	 0.722438 	 0.042375 	  
 9.495937 	 -5.086214 	 -2.086140 	 0.916125 	 0.731313 	 0.722812 	 0.047125 	  
 9.354458 	 -4.293928 	 1.002830 	 0.915188 	 0.730625 	 0.723500 	 0.065625 	  
 9.417338 	 -3.878922 	 1.285789 	 0.915500 	 0.730437 	 0.721938 	 0.060750 	  
 9.810336 	 -4.545448 	 3.337243 	 0.915063 	 0.730500 	 0.723438 	 0.061250 	  
 13.559544 	 -3.124364 	 1.010690 	 0.915188 	 0.732125 	 0.723375 	 0.048813 	  
 16.554194 	 -1.112211 	 6.103954 	 0.915250 	 0.730313 	 0.721938 	 0.062500 	  
 15.013639 	 0.082505 	 5.514456 	 0.916813 	 0.731187 	 0.722438 	 0.045312 	  
 11.610270 	 2.836641 	 6.614852 	 0.915563 	 0.730313 	 0.721812 	 0.063375 	  
 9.558817 	 5.917751 	 5.640215 	 0.917000 	 0.731563 	 0.722313 	 0.045125 	  
 6.807826 	 7.477170 	 7.110031 	 0.914875 	 0.730063 	 0.723250 	 0.067312 	  
 6.265488 	 7.615505 	 4.987837 	 0.917063 	 0.730250 	 0.721500 	 0.052937 	  
 8.623480 	 8.143695 	 6.041074 	 0.914750 	 0.731437 	 0.723375 	 0.055750 	  
 10.588474 	 9.174924 	 7.392990 	 0.914687 	 0.729125 	 0.721625 	 0.072500 	  
 8.552740 	 10.092969 	 6.819212 	 0.916687 	 0.730563 	 0.721812 	 0.054000 	  
 5.613110 	 11.375717 	 8.359767 	 0.914125 	 0.728500 	 0.722875 	 0.080375 	  
 2.775659 	 10.948134 	 6.685592 	 0.916438 	 0.728375 	 0.721375 	 0.059563 	  
 3.907495 	 9.589931 	 5.640215 	 0.914063 	 0.729500 	 0.722938 	 0.059375 	  
 7.295144 	 6.860948 	 3.722382 	 0.914375 	 0.727250 	 0.720938 	 0.096312 	  
 9.323018 	 7.867024 	 6.559832 	 0.915750 	 0.728688 	 0.721875 	 0.060062 	  
 7.853203 	 9.715690 	 6.944971 	 0.913938 	 0.727125 	 0.722562 	 0.083750 	  
 7.593823 	 9.237804 	 2.779185 	 0.916188 	 0.727625 	 0.720875 	 0.068812 	  
 7.287284 	 8.357487 	 4.940678 	 0.915813 	 0.728688 	 0.721750 	 0.061062 	  
 4.984312 	 7.829296 	 4.759898 	 0.915188 	 0.728563 	 0.721875 	 0.058250 	  
 3.066478 	 6.785492 	 3.290083 	 0.916375 	 0.727750 	 0.721063 	 0.070062 	  
 4.528433 	 4.924250 	 5.986054 	 0.914250 	 0.727500 	 0.722000 	 0.077313 	  
 7.436624 	 3.289375 	 3.274363 	 0.914438 	 0.727625 	 0.721187 	 0.085750 	  
 7.672423 	 4.194844 	 3.046424 	 0.914063 	 0.728000 	 0.722812 	 0.081937 	  
 7.114365 	 4.735610 	 3.769541 	 0.914813 	 0.729875 	 0.722313 	 0.058188 	  
 6.556307 	 4.723034 	 2.417626 	 0.914625 	 0.730375 	 0.723250 	 0.054000 	  
 6.564167 	 5.703959 	 5.710955 	 0.914375 	 0.730625 	 0.723250 	 0.057188 	  
 6.870706 	 6.156694 	 2.897084 	 0.914500 	 0.729000 	 0.723125 	 0.067187 	  
 9.543097 	 4.509243 	 -0.160446 	 0.914813 	 0.729688 	 0.723250 	 0.067812 	  
 13.119386 	 3.138464 	 1.309369 	 0.916750 	 0.731625 	 0.722250 	 0.042188 	  
 14.463441 	 1.931171 	 3.392263 	 0.917188 	 0.731437 	 0.721875 	 0.043000 	  
 14.054722 	 0.623272 	 0.319013 	 0.915063 	 0.731437 	 0.723625 	 0.055313 	  
 14.321962 	 -0.307349 	 3.258643 	 0.914875 	 0.730187 	 0.723375 	 0.063438 	  
 15.697457 	 -0.357653 	 0.240413 	 0.915312 	 0.731875 	 0.723313 	 0.048688 	  
 17.536691 	 1.717380 	 -1.276562 	 0.915125 	 0.731875 	 0.723500 	 0.044875 	  
 16.334115 	 3.993629 	 2.441206 	 0.915063 	 0.730563 	 0.723313 	 0.061750 	  
 14.329822 	 4.119388 	 9.758842 	 0.917188 	 0.730563 	 0.721562 	 0.045250 	  
 12.144749 	 4.911674 	 7.503029 	 0.915000 	 0.730000 	 0.723375 	 0.062312 	  
 13.025066 	 7.602929 	 8.917825 	 0.917250 	 0.730625 	 0.721625 	 0.042125 	  
 13.795343 	 10.520552 	 9.106464 	 0.914938 	 0.730625 	 0.723250 	 0.063500 	  
 12.639927 	 10.621159 	 6.166834 	 0.917000 	 0.729812 	 0.721625 	 0.053875 	  
 13.142965 	 11.589508 	 6.717032 	 0.915000 	 0.731125 	 0.723187 	 0.051000 	  
 14.400561 	 14.079548 	 8.241867 	 0.914375 	 0.728875 	 0.723000 	 0.076125 	  
 13.590984 	 14.834106 	 9.986781 	 0.916625 	 0.729938 	 0.721500 	 0.052000 	  
 10.619914 	 13.086047 	 7.133611 	 0.914375 	 0.729938 	 0.723187 	 0.064375 	  
 7.192965 	 10.369640 	 5.663795 	 0.915438 	 0.727938 	 0.721000 	 0.085750 	  
 3.231538 	 10.746919 	 14.490547 	 0.916125 	 0.729500 	 0.721875 	 0.056438 	  
 1.887482 	 12.306338 	 11.605936 	 0.914375 	 0.727938 	 0.722562 	 0.084687 	  
 7.106505 	 10.998438 	 12.729912 	 0.915938 	 0.728375 	 0.721250 	 0.061625 	  
 11.791050 	 10.583431 	 4.932818 	 0.913813 	 0.728187 	 0.722625 	 0.077688 	  
 9.110798 	 11.224805 	 4.138960 	 0.914938 	 0.727313 	 0.720750 	 0.089313 	  
 4.441974 	 11.400869 	 6.426213 	 0.915875 	 0.728000 	 0.721000 	 0.063750 	  
 1.879622 	 10.721767 	 -3.430195 	 0.916188 	 0.728375 	 0.721063 	 0.058688 	  
 -0.659150 	 10.331912 	 -10.535612 	 0.914813 	 0.728063 	 0.721250 	 0.081000 	  
 -2.018925 	 10.470248 	 -4.750671 	 0.913813 	 0.728812 	 0.722750 	 0.067625 	  
 -0.989269 	 9.225228 	 -1.834620 	 0.916312 	 0.729250 	 0.721063 	 0.060312 	  
 2.524140 	 7.804144 	 2.378326 	 0.916438 	 0.729063 	 0.721187 	 0.058875 	  
 6.406967 	 7.703537 	 -1.512361 	 0.914125 	 0.729000 	 0.723000 	 0.070375 	  
 8.214761 	 8.168847 	 -0.246906 	 0.914500 	 0.728688 	 0.722750 	 0.081062 	  
 6.996465 	 9.174924 	 -0.270486 	 0.914438 	 0.730500 	 0.723125 	 0.053250 	  
 5.613110 	 10.243881 	 2.763465 	 0.916687 	 0.729563 	 0.721438 	 0.054875 	  
 7.538804 	 10.998438 	 4.610559 	 0.915125 	 0.729563 	 0.722187 	 0.070875 	  
 10.219055 	 10.017513 	 4.461219 	 0.914813 	 0.731563 	 0.723250 	 0.052437 	  
 10.863573 	 6.496245 	 0.877071 	 0.916938 	 0.731375 	 0.721625 	 0.044187 	  
 8.395541 	 3.540894 	 1.348669 	 0.917563 	 0.731313 	 0.721500 	 0.039750 	  
 8.411261 	 2.107235 	 0.877071 	 0.917438 	 0.731688 	 0.721750 	 0.037250 	  
 9.503797 	 1.516165 	 6.622712 	 0.917375 	 0.730875 	 0.721500 	 0.048875 	  
 12.443428 	 1.704804 	 4.822778 	 0.917687 	 0.731000 	 0.721625 	 0.046875 	  
 17.913970 	 3.213919 	 6.394773 	 0.917375 	 0.732500 	 0.722187 	 0.038812 	  
 21.474538 	 5.062585 	 10.984998 	 0.915188 	 0.730688 	 0.723187 	 0.063188 	  
 21.859677 	 4.798490 	 10.741339 	 0.917250 	 0.730500 	 0.721500 	 0.042250 	  
 21.655318 	 6.710036 	 12.627733 	 0.914875 	 0.731125 	 0.723250 	 0.060375 	  
 19.179426 	 10.922982 	 11.708116 	 0.917250 	 0.730500 	 0.721438 	 0.049188 	  
 15.493098 	 13.651966 	 10.867098 	 0.914687 	 0.731375 	 0.723313 	 0.046562 	  
 12.294088 	 12.821952 	 4.775618 	 0.915250 	 0.729750 	 0.721438 	 0.069875 	  
 13.355185 	 10.646311 	 7.636649 	 0.916938 	 0.731250 	 0.721500 	 0.053125 	  
 13.685304 	 8.810221 	 12.195434 	 0.914687 	 0.729375 	 0.722938 	 0.074813 	  
 11.681010 	 8.357487 	 8.076807 	 0.916750 	 0.729000 	 0.721187 	 0.059375 	  
 10.376254 	 10.193577 	 1.796688 	 0.914312 	 0.729688 	 0.722875 	 0.064062 	  
 6.627047 	 10.130697 	 1.773108 	 0.915375 	 0.728125 	 0.721125 	 0.081437 	  
 4.434114 	 8.420366 	 1.553029 	 0.916312 	 0.729750 	 0.721688 	 0.055813 	  
 6.446267 	 8.835373 	 3.109304 	 0.914063 	 0.727375 	 0.722375 	 0.091125 	  
 8.599900 	 10.394792 	 2.779185 	 0.916250 	 0.727875 	 0.720938 	 0.067312 	  
 7.546664 	 12.469825 	 1.380109 	 0.914063 	 0.729125 	 0.722750 	 0.059438 	  
 2.838539 	 10.570856 	 1.961747 	 0.913875 	 0.727125 	 0.722438 	 0.086688 	  
 -0.431211 	 6.747764 	 0.916371 	 0.914375 	 0.727500 	 0.720750 	 0.088063 	  
 1.156504 	 6.923827 	 5.160757 	 0.914375 	 0.727812 	 0.721812 	 0.078625 	  
 3.035038 	 7.892176 	 4.539819 	 0.914188 	 0.727938 	 0.722500 	 0.082500 	  
 4.481273 	 6.911251 	 6.237573 	 0.914000 	 0.729437 	 0.722812 	 0.063688 	  
 6.210468 	 6.420789 	 3.502302 	 0.913938 	 0.729750 	 0.722750 	 0.063313 	  
 8.599900 	 6.181846 	 -1.025043 	 0.915000 	 0.728250 	 0.720938 	 0.079063 	  
 9.173678 	 5.376984 	 -4.750671 	 0.916563 	 0.729812 	 0.721688 	 0.050750 	  
 6.234048 	 2.798913 	 -9.356616 	 0.917000 	 0.730625 	 0.721375 	 0.051688 	  
 -0.281871 	 -1.074483 	 -5.332309 	 0.915875 	 0.728938 	 0.721187 	 0.079500 	  
 -3.724540 	 -3.979529 	 -1.142943 	 0.915375 	 0.729375 	 0.721313 	 0.070688 	  
 -0.997129 	 -5.400613 	 1.875288 	 0.916188 	 0.729938 	 0.721375 	 0.066062 	  
 3.373017 	 -4.834695 	 5.255077 	 0.914938 	 0.731375 	 0.723250 	 0.051938 	  
 6.147588 	 -4.558023 	 -0.081846 	 0.917250 	 0.730313 	 0.721500 	 0.049875 	  
 9.024339 	 -2.457838 	 -1.315862 	 0.915438 	 0.731563 	 0.723313 	 0.052125 	  
 9.267998 	 -0.760084 	 2.755605 	 0.916687 	 0.731938 	 0.722438 	 0.041125 	  
 7.758883 	 -0.709780 	 3.911021 	 0.917438 	 0.732000 	 0.721875 	 0.034188 	  
 10.156175 	 0.396904 	 1.946027 	 0.917312 	 0.732187 	 0.722438 	 0.037000 	  
 14.369121 	 2.371330 	 9.012144 	 0.915250 	 0.730250 	 0.723187 	 0.062625 	  
 17.796070 	 3.566046 	 10.788499 	 0.917063 	 0.731000 	 0.721438 	 0.045625 	  
 17.945410 	 6.433365 	 9.562343 	 0.915312 	 0.730063 	 0.723063 	 0.067000 	  
 15.398778 	 10.734343 	 9.153624 	 0.917312 	 0.730187 	 0.721562 	 0.042875 	  
 11.390191 	 12.721345 	 14.687046 	 0.914687 	 0.730938 	 0.723250 	 0.054375 	  
 9.912516 	 10.168425 	 10.544839 	 0.915500 	 0.729063 	 0.721375 	 0.071188 	  
 11.767470 	 8.168847 	 11.873175 	 0.917250 	 0.730750 	 0.721812 	 0.046437 	  
 11.728170 	 9.187500 	 15.087905 	 0.914750 	 0.728500 	 0.722938 	 0.073000 	  
 9.205118 	 10.017513 	 11.503756 	 0.916938 	 0.729563 	 0.721313 	 0.057625 	  
 8.442701 	 11.413445 	 7.518749 	 0.914250 	 0.728500 	 0.722875 	 0.079000 	  
 7.861063 	 11.903907 	 6.339753 	 0.916563 	 0.728063 	 0.721063 	 0.058375 	  
 5.699570 	 10.998438 	 5.789555 	 0.914125 	 0.729437 	 0.722812 	 0.067375 	  
 3.899635 	 10.105545 	 -0.474845 	 0.914687 	 0.727375 	 0.720750 	 0.086125 	  
 5.951089 	 11.237381 	 1.859568 	 0.916125 	 0.728875 	 0.721187 	 0.066937 	  
 9.267998 	 13.752573 	 5.663795 	 0.913750 	 0.728500 	 0.722688 	 0.078688 	  
 11.327311 	 13.186655 	 1.167890 	 0.914687 	 0.727313 	 0.720750 	 0.083687 	  
 9.912516 	 11.627236 	 1.914587 	 0.916188 	 0.727625 	 0.720875 	 0.057688 	  
 8.277641 	 12.482401 	 2.071787 	 0.916500 	 0.728187 	 0.721000 	 0.066812 	  
 7.813903 	 12.293762 	 3.470862 	 0.915500 	 0.727938 	 0.720812 	 0.082375 	  
 9.008619 	 8.722190 	 5.427996 	 0.914312 	 0.727750 	 0.722562 	 0.082125 	  
 10.934313 	 6.986707 	 2.456926 	 0.916250 	 0.729375 	 0.721625 	 0.053250 	  
 11.963969 	 10.507976 	 2.323306 	 0.914563 	 0.728187 	 0.721750 	 0.078063 	  
 10.352674 	 12.557857 	 2.606265 	 0.914813 	 0.728313 	 0.721375 	 0.081000 	  
 7.593823 	 9.627659 	 4.351180 	 0.916500 	 0.728938 	 0.721187 	 0.072875 	  
 7.688143 	 4.484091 	 10.434800 	 0.917125 	 0.729938 	 0.721250 	 0.053375 	  
 10.415554 	 2.509666 	 1.946027 	 0.917000 	 0.730625 	 0.721438 	 0.053562 	  
 13.308025 	 5.439864 	 0.947811 	 0.915875 	 0.729938 	 0.721500 	 0.069062 	  
 16.679954 	 6.018358 	 2.912804 	 0.915000 	 0.731500 	 0.723187 	 0.048750 	  
 16.955053 	 1.742532 	 3.525882 	 0.917438 	 0.729938 	 0.721500 	 0.067812 	  
 15.453798 	 0.384329 	 1.427269 	 0.915312 	 0.732187 	 0.723438 	 0.042938 	  
 13.622424 	 3.151040 	 -2.691358 	 0.915188 	 0.731750 	 0.723438 	 0.039813 	  
 9.472357 	 5.641079 	 -5.717448 	 0.915063 	 0.731250 	 0.723313 	 0.055000 	  
 3.498777 	 5.465016 	 -6.023987 	 0.915312 	 0.730500 	 0.723250 	 0.064000 	  
 2.759939 	 5.439864 	 2.126807 	 0.918000 	 0.730563 	 0.721562 	 0.040125 	  
 6.870706 	 7.728689 	 9.523043 	 0.914875 	 0.731313 	 0.723313 	 0.050563 	  
 9.763176 	 9.715690 	 8.155407 	 0.915813 	 0.730125 	 0.721625 	 0.065062 	  
 14.188342 	 11.715268 	 9.137904 	 0.917250 	 0.731500 	 0.721938 	 0.041688 	  
 18.448448 	 13.777725 	 9.955341 	 0.915250 	 0.729875 	 0.723313 	 0.066437 	  
 18.967207 	 14.167580 	 12.446953 	 0.917188 	 0.730187 	 0.721375 	 0.052062 	  
 16.396995 	 13.362718 	 14.011088 	 0.914750 	 0.731000 	 0.723125 	 0.056188 	  
 13.724604 	 10.558280 	 10.206861 	 0.915500 	 0.729125 	 0.721250 	 0.072563 	  
 12.867866 	 7.288530 	 1.553029 	 0.916312 	 0.730500 	 0.722375 	 0.051813 	  
 11.138672 	 6.886099 	 3.250783 	 0.914625 	 0.728812 	 0.722750 	 0.073563 	  
 8.937879 	 9.011437 	 -1.308002 	 0.916563 	 0.729000 	 0.721250 	 0.056313 	  
 7.420904 	 12.130274 	 3.195763 	 0.914438 	 0.728375 	 0.722812 	 0.078750 	  
 4.866412 	 11.061318 	 0.664851 	 0.916563 	 0.728187 	 0.721187 	 0.071000 	  
 0.936425 	 7.414290 	 1.906727 	 0.914063 	 0.728812 	 0.722812 	 0.060500 	  
 0.126848 	 4.622427 	 -2.345519 	 0.914375 	 0.727438 	 0.721562 	 0.087063 	  
 3.593096 	 3.213919 	 0.429052 	 0.916250 	 0.728313 	 0.721063 	 0.059313 	  
 5.086492 	 0.459784 	 3.722382 	 0.914813 	 0.728688 	 0.722125 	 0.060000 	  
 6.461987 	 -1.011603 	 8.972845 	 0.915500 	 0.728938 	 0.721875 	 0.066250 	  
 7.232265 	 0.937671 	 7.864588 	 0.916625 	 0.729500 	 0.721625 	 0.055688 	  
 5.361591 	 4.760762 	 13.005012 	 0.916250 	 0.727812 	 0.720938 	 0.060937 	  
 3.970375 	 4.660155 	 8.438366 	 0.916375 	 0.728125 	 0.721063 	 0.058750 	  
 6.933586 	 2.434210 	 7.149330 	 0.914188 	 0.729437 	 0.723000 	 0.056375 	  
 11.563111 	 3.452863 	 0.287573 	 0.914875 	 0.728125 	 0.721187 	 0.080562 	  
 13.512384 	 4.924250 	 -1.826760 	 0.915125 	 0.728250 	 0.721187 	 0.077250 	  
 8.096862 	 3.528318 	 -3.760314 	 0.915312 	 0.728750 	 0.721375 	 0.070375 	  
 -0.156111 	 0.887367 	 0.004614 	 0.915500 	 0.728750 	 0.721187 	 0.069750 	  
 -1.390128 	 1.566469 	 -0.136866 	 0.914875 	 0.729563 	 0.723250 	 0.062625 	  
 4.945012 	 4.936826 	 1.458709 	 0.915000 	 0.729750 	 0.723250 	 0.068000 	  
 10.698513 	 5.465016 	 0.122513 	 0.915063 	 0.731125 	 0.723250 	 0.053812 	  
 10.360534 	 1.855716 	 -2.164739 	 0.917438 	 0.730187 	 0.721812 	 0.043625 	  
 8.717800 	 1.151462 	 -3.147236 	 0.915875 	 0.730125 	 0.721562 	 0.058500 	  
 6.870706 	 2.119811 	 0.908511 	 0.917500 	 0.730000 	 0.721688 	 0.060687 	  
 6.045408 	 1.591621 	 1.710228 	 0.917063 	 0.729938 	 0.721875 	 0.061625 	  
 8.222621 	 1.340101 	 2.621985 	 0.917625 	 0.730688 	 0.721625 	 0.047813 	  
 12.632067 	 1.943747 	 10.151841 	 0.917500 	 0.731313 	 0.722375 	 0.044875 	  
 14.565621 	 2.723457 	 4.901378 	 0.915250 	 0.729688 	 0.721938 	 0.065875 	  
 14.125462 	 4.886522 	 7.204350 	 0.917000 	 0.731313 	 0.722125 	 0.039563 	  
 13.771763 	 9.262956 	 15.072185 	 0.915188 	 0.729938 	 0.723250 	 0.065250 	  
 12.985766 	 12.042243 	 17.618817 	 0.917250 	 0.729812 	 0.721625 	 0.058438 	  
 10.321235 	 13.689693 	 9.719542 	 0.915000 	 0.731125 	 0.723313 	 0.048938 	  
 7.098645 	 13.714845 	 9.271524 	 0.914938 	 0.729063 	 0.721688 	 0.072250 	  
 10.690653 	 14.381371 	 12.902832 	 0.916813 	 0.730375 	 0.721625 	 0.049750 	  
 16.648514 	 15.777303 	 5.750255 	 0.914750 	 0.728500 	 0.723000 	 0.072250 	  
 14.809280 	 15.060473 	 3.573042 	 0.916687 	 0.728812 	 0.721313 	 0.060437 	  
 11.075792 	 14.683194 	 4.775618 	 0.914063 	 0.729563 	 0.722875 	 0.066312 	  
 10.061855 	 13.664542 	 6.874231 	 0.915250 	 0.727938 	 0.721000 	 0.084000 	  
 7.758883 	 13.727421 	 5.286516 	 0.915875 	 0.728688 	 0.721688 	 0.059750 	  
 5.919649 	 14.972441 	 6.512673 	 0.914000 	 0.727125 	 0.722500 	 0.085062 	  
 9.896796 	 14.808954 	 9.145764 	 0.916375 	 0.727688 	 0.720875 	 0.064500 	  
 13.386625 	 13.098623 	 4.044641 	 0.914000 	 0.728563 	 0.722688 	 0.064625 	  
 7.798183 	 10.168425 	 1.081430 	 0.914063 	 0.727125 	 0.722438 	 0.088625 	  
 1.101484 	 8.344911 	 4.610559 	 0.914500 	 0.727625 	 0.722500 	 0.075813 	  
 -0.863509 	 7.125043 	 2.134667 	 0.913938 	 0.729250 	 0.722938 	 0.061062 	  
 -2.207565 	 4.685307 	 0.130373 	 0.914063 	 0.729187 	 0.722812 	 0.063188 	  
 -1.358688 	 2.471938 	 -1.197963 	 0.914500 	 0.728063 	 0.721187 	 0.086000 	  
 3.003598 	 2.572545 	 1.914587 	 0.914375 	 0.728250 	 0.722688 	 0.080875 	  
 6.304788 	 4.308028 	 -3.791754 	 0.916375 	 0.730000 	 0.721938 	 0.054562 	  
 6.886426 	 5.741687 	 -1.905360 	 0.916938 	 0.729000 	 0.721313 	 0.064437 	  
 6.116148 	 5.741687 	 -0.789244 	 0.914687 	 0.729125 	 0.723063 	 0.071688 	  
 3.585236 	 3.075584 	 -1.174383 	 0.914750 	 0.731000 	 0.723063 	 0.056750 	  
 1.761722 	 0.019626 	 -3.445915 	 0.915125 	 0.730375 	 0.723313 	 0.062875 	  
 4.355514 	 -0.948723 	 6.143254 	 0.917250 	 0.730125 	 0.721688 	 0.053437 	  
 11.908949 	 1.667076 	 9.601643 	 0.917000 	 0.729938 	 0.721500 	 0.066687 	  
 20.523482 	 5.955478 	 4.634139 	 0.915250 	 0.732313 	 0.723625 	 0.035875 	  
 22.834314 	 7.477170 	 6.544112 	 0.917250 	 0.731313 	 0.721500 	 0.040438 	  
 17.796070 	 4.157116 	 2.763465 	 0.917687 	 0.730812 	 0.721562 	 0.049750 	  
 12.545607 	 2.321026 	 5.553756 	 0.917625 	 0.731875 	 0.721938 	 0.035500 	  
 13.017206 	 6.194422 	 5.475156 	 0.915375 	 0.731250 	 0.723375 	 0.059063 	  
 17.686031 	 9.703114 	 8.045368 	 0.917188 	 0.730000 	 0.721500 	 0.047813 	  
 19.037946 	 11.249957 	 4.571259 	 0.915125 	 0.731437 	 0.723313 	 0.055875 	  
 14.864300 	 11.375717 	 2.629845 	 0.917000 	 0.730063 	 0.721500 	 0.057688 	  
 11.185832 	 11.262533 	 9.027864 	 0.916500 	 0.731187 	 0.722562 	 0.044562 	  
 8.340521 	 11.652388 	 2.040347 	 0.914875 	 0.729563 	 0.722375 	 0.073875 	  
 7.208685 	 12.696193 	 6.551972 	 0.917000 	 0.731000 	 0.721625 	 0.051000 	  
 9.723877 	 13.501054 	 8.839225 	 0.914625 	 0.729000 	 0.723063 	 0.070187 	  
 12.624207 	 12.469825 	 6.976411 	 0.917000 	 0.729250 	 0.721313 	 0.059813 	  
 14.557761 	 12.419522 	 8.037508 	 0.914750 	 0.730187 	 0.722875 	 0.060937 	  
 13.158685 	 12.972864 	 4.382619 	 0.914750 	 0.728000 	 0.721250 	 0.082250 	  
 10.651354 	 13.287263 	 6.371193 	 0.916438 	 0.729625 	 0.721562 	 0.057625 	  
 7.326584 	 12.117699 	 5.105737 	 0.913875 	 0.727313 	 0.722500 	 0.088063 	  
 3.954655 	 9.250380 	 5.695235 	 0.916312 	 0.727938 	 0.720938 	 0.057813 	  
 2.139001 	 8.181423 	 6.072514 	 0.913875 	 0.728812 	 0.722625 	 0.077563 	  
 3.145078 	 9.753418 	 3.863861 	 0.914875 	 0.727438 	 0.720688 	 0.092875 	  
 5.306571 	 10.306760 	 1.348669 	 0.916063 	 0.727313 	 0.720750 	 0.074000 	  
 5.385171 	 7.791569 	 2.794905 	 0.915250 	 0.727750 	 0.720875 	 0.085312 	  
 3.616676 	 4.861370 	 3.297943 	 0.914188 	 0.727938 	 0.722562 	 0.080937 	  
 1.423743 	 4.710458 	 3.125023 	 0.914250 	 0.729563 	 0.722875 	 0.059750 	  
 0.912845 	 5.452440 	 1.395829 	 0.914063 	 0.729688 	 0.722875 	 0.061312 	  
 5.707430 	 6.131542 	 1.702368 	 0.914625 	 0.728250 	 0.721438 	 0.079875 	  
 11.570971 	 4.018781 	 -1.064343 	 0.916625 	 0.730000 	 0.721438 	 0.054375 	  
 12.608487 	 3.125888 	 3.007124 	 0.916875 	 0.730625 	 0.721812 	 0.052937 	  
 12.003269 	 1.931171 	 5.003557 	 0.916687 	 0.728875 	 0.721375 	 0.074500 	  
 12.624207 	 0.987975 	 1.002830 	 0.916375 	 0.729437 	 0.721313 	 0.065875 	  
 11.712450 	 0.849639 	 1.922447 	 0.917250 	 0.730125 	 0.721438 	 0.061250 	  
 10.164035 	 1.365253 	 -0.136866 	 0.917188 	 0.730313 	 0.721438 	 0.044312 	  
 11.963969 	 -0.244469 	 1.647348 	 0.915000 	 0.731688 	 0.723250 	 0.049750 	  
 15.390918 	 -0.860691 	 -0.270486 	 0.915563 	 0.732625 	 0.723250 	 0.037750 	  
 15.776057 	 1.767684 	 1.293649 	 0.917438 	 0.730688 	 0.721750 	 0.057125 	  
 13.520244 	 4.471515 	 1.490149 	 0.915438 	 0.730625 	 0.722625 	 0.065500 	  
 9.896796 	 5.037433 	 5.388696 	 0.916000 	 0.730688 	 0.721688 	 0.063063 	  
 8.930019 	 5.854871 	 6.748472 	 0.917500 	 0.732375 	 0.722063 	 0.034688 	  
 9.307298 	 7.024435 	 10.246160 	 0.915063 	 0.730187 	 0.723125 	 0.068250 	  
 11.649570 	 6.533973 	 7.534469 	 0.917438 	 0.730625 	 0.721625 	 0.042688 	  
 14.549901 	 8.030512 	 7.998208 	 0.914875 	 0.731375 	 0.723250 	 0.051625 	  
 12.647787 	 9.237804 	 8.312607 	 0.915875 	 0.729938 	 0.721375 	 0.066875 	  
 7.358024 	 9.061740 	 4.665579 	 0.917188 	 0.731375 	 0.721938 	 0.043000 	  
 2.862119 	 9.916906 	 6.772052 	 0.915000 	 0.729250 	 0.723187 	 0.070187 	  
 2.516280 	 12.281186 	 8.964985 	 0.917063 	 0.729437 	 0.721313 	 0.056938 	  
 2.382660 	 14.268188 	 8.061088 	 0.914500 	 0.730250 	 0.723063 	 0.062437 	  
 4.756373 	 15.261688 	 6.779912 	 0.916250 	 0.728750 	 0.721187 	 0.064812 	  
 8.269781 	 14.871834 	 1.780968 	 0.915375 	 0.729688 	 0.722375 	 0.054312 	  
 9.142238 	 12.054819 	 3.195763 	 0.914188 	 0.727812 	 0.722562 	 0.085437 	  
 6.367667 	 7.464594 	 -6.086867 	 0.916375 	 0.728437 	 0.721063 	 0.063375 	  
 3.231538 	 5.163193 	 -0.191886 	 0.913813 	 0.728750 	 0.722625 	 0.073563 	  
 1.683123 	 4.396060 	 0.067493 	 0.914687 	 0.727500 	 0.720750 	 0.080437 	  
 4.190454 	 4.006205 	 1.498009 	 0.916063 	 0.729250 	 0.721063 	 0.059125 	  
 7.892502 	 5.238649 	 3.109304 	 0.913687 	 0.728563 	 0.722562 	 0.067062 	  
 9.338738 	 6.948979 	 4.421919 	 0.914000 	 0.729000 	 0.722625 	 0.073250 	  
 9.574537 	 6.848372 	 1.254350 	 0.914938 	 0.729875 	 0.722000 	 0.057563 	  
 9.881076 	 6.257301 	 4.217560 	 0.916375 	 0.729125 	 0.721375 	 0.057313 	  
 6.351947 	 6.848372 	 3.062144 	 0.914125 	 0.729437 	 0.722750 	 0.063750 	  
 3.632396 	 6.533973 	 6.308313 	 0.914312 	 0.728125 	 0.721812 	 0.075563 	  
 8.151882 	 5.138041 	 2.519805 	 0.916687 	 0.729187 	 0.721063 	 0.060812 	  
 13.756043 	 3.943325 	 5.608775 	 0.914375 	 0.730250 	 0.722938 	 0.062062 	  
 13.009346 	 4.157116 	 6.096094 	 0.915438 	 0.729187 	 0.721250 	 0.077313 	  
 8.780680 	 4.886522 	 5.192197 	 0.916750 	 0.730313 	 0.721500 	 0.051313 	  
 7.295144 	 5.553048 	 6.583412 	 0.917063 	 0.731000 	 0.721500 	 0.042375 	  
 8.670640 	 4.924250 	 0.884931 	 0.917250 	 0.731500 	 0.721500 	 0.044437 	  
 11.146532 	 3.553470 	 -1.638121 	 0.914938 	 0.731250 	 0.723187 	 0.049625 	  
 16.601354 	 0.874791 	 -4.349812 	 0.915063 	 0.732375 	 0.723375 	 0.041875 	  
 24.115490 	 2.497090 	 -0.121146 	 0.917375 	 0.731938 	 0.721812 	 0.036625 	  
 24.453469 	 6.445941 	 7.542329 	 0.917500 	 0.732000 	 0.721938 	 0.035000 	  
 17.701751 	 7.439442 	 0.649132 	 0.917312 	 0.732000 	 0.722375 	 0.038500 	  
 10.250495 	 7.049587 	 3.675222 	 0.915438 	 0.731250 	 0.723313 	 0.057188 	  
 5.620970 	 7.477170 	 7.550189 	 0.916687 	 0.730313 	 0.721562 	 0.068812 	  
 6.344087 	 7.037011 	 5.624495 	 0.916188 	 0.731563 	 0.722812 	 0.040875 	  
 11.830350 	 7.049587 	 5.152897 	 0.915250 	 0.729750 	 0.722125 	 0.064875 	  
 17.269452 	 7.452018 	 5.553756 	 0.917375 	 0.731187 	 0.721750 	 0.044312 	  
 15.846797 	 6.571700 	 8.367627 	 0.915000 	 0.729938 	 0.723125 	 0.063750 	  
 10.957893 	 4.232572 	 7.408710 	 0.917375 	 0.729688 	 0.721313 	 0.054625 	  
 9.747456 	 3.905597 	 6.850651 	 0.914687 	 0.730750 	 0.723187 	 0.054688 	  
 9.849636 	 7.275954 	 10.639159 	 0.914500 	 0.728625 	 0.722375 	 0.071813 	  
 8.647060 	 12.733921 	 9.216504 	 0.916875 	 0.729250 	 0.721313 	 0.055000 	  
 9.032199 	 15.739575 	 11.055738 	 0.914312 	 0.729000 	 0.722812 	 0.064562 	  
 10.902873 	 15.601239 	 11.377997 	 0.915125 	 0.727563 	 0.721000 	 0.081562 	  
 11.547391 	 14.280764 	 9.059304 	 0.916438 	 0.729313 	 0.721625 	 0.054750 	  
 7.837483 	 13.853181 	 7.243650 	 0.913875 	 0.726750 	 0.722500 	 0.085250 	  
 3.758156 	 13.111199 	 5.215777 	 0.916250 	 0.727375 	 0.720875 	 0.068125 	  
 3.129358 	 11.991939 	 5.962474 	 0.914500 	 0.728750 	 0.722438 	 0.061750 	  
 4.945012 	 9.049164 	 4.791338 	 0.913875 	 0.726625 	 0.722500 	 0.084687 	  
 7.303004 	 5.678807 	 3.863861 	 0.914625 	 0.726875 	 0.721000 	 0.086000 	  
 6.658486 	 4.169692 	 6.394773 	 0.915063 	 0.727563 	 0.720875 	 0.080875 	  
 4.599173 	 5.150617 	 2.496226 	 0.914063 	 0.727250 	 0.722562 	 0.081625 	  
 0.944285 	 7.301106 	 1.804548 	 0.914875 	 0.729000 	 0.721812 	 0.057063 	  
 -1.138608 	 8.847949 	 -3.123656 	 0.916500 	 0.729313 	 0.721875 	 0.057250 	  
 1.620243 	 7.917328 	 -2.054700 	 0.914312 	 0.728000 	 0.722688 	 0.081062 	  
 7.004325 	 5.213497 	 3.297943 	 0.914750 	 0.728313 	 0.722187 	 0.079750 	  
 10.077575 	 3.993629 	 0.955671 	 0.915000 	 0.728688 	 0.721688 	 0.074000 	  
 10.077575 	 3.679230 	 4.531959 	 0.916938 	 0.730250 	 0.721375 	 0.050563 	  
 8.592040 	 2.673153 	 8.784205 	 0.916938 	 0.730563 	 0.721750 	 0.053375 	  
 6.241908 	 3.289375 	 4.028921 	 0.916438 	 0.729563 	 0.721438 	 0.068875 	  
 5.620970 	 7.363986 	 2.370466 	 0.915125 	 0.731313 	 0.723250 	 0.042875 	  
 9.260138 	 9.124620 	 -4.546312 	 0.915188 	 0.731313 	 0.723438 	 0.039250 	  
 15.508818 	 7.225650 	 -6.912164 	 0.915188 	 0.732187 	 0.723500 	 0.035813 	  
 17.725331 	 3.830141 	 -1.936800 	 0.917375 	 0.731875 	 0.721750 	 0.040625 	  
 15.540258 	 0.799335 	 -0.152586 	 0.917750 	 0.730625 	 0.721812 	 0.053125 	  
 13.693164 	 -0.961299 	 4.359039 	 0.917625 	 0.731250 	 0.721812 	 0.037000 	  
 13.229425 	 -1.112211 	 5.758115 	 0.915375 	 0.732063 	 0.723438 	 0.052437 	  
 12.388408 	 0.422056 	 5.876015 	 0.916250 	 0.729500 	 0.721500 	 0.063688 	  
 12.144749 	 2.572545 	 -2.667778 	 0.915750 	 0.731750 	 0.723000 	 0.041563 	  
 11.924669 	 4.358332 	 -0.058266 	 0.915312 	 0.729938 	 0.721812 	 0.069000 	  
 9.857496 	 5.477592 	 7.243650 	 0.917312 	 0.730875 	 0.721750 	 0.045375 	  
 7.035765 	 7.376562 	 4.201840 	 0.914625 	 0.730313 	 0.723187 	 0.060375 	  
 2.964298 	 6.093814 	 2.040347 	 0.917000 	 0.729063 	 0.721313 	 0.061750 	  
 -0.533390 	 2.874368 	 3.958181 	 0.914687 	 0.730250 	 0.723063 	 0.056250 	  
 0.543426 	 -0.156438 	 5.797415 	 0.915125 	 0.728750 	 0.721438 	 0.073438 	  
 8.033982 	 0.673576 	 8.202567 	 0.916687 	 0.729938 	 0.721500 	 0.061062 	  
 11.861790 	 2.924672 	 7.267230 	 0.914250 	 0.727688 	 0.722688 	 0.084875 	  
 8.599900 	 4.157116 	 7.345830 	 0.916563 	 0.728375 	 0.721187 	 0.060750 	  
 6.422687 	 6.156694 	 8.697745 	 0.913938 	 0.728500 	 0.722812 	 0.061875 	  
 5.699570 	 9.854026 	 8.949265 	 0.915063 	 0.727000 	 0.720688 	 0.087125 	  
 3.561656 	 13.337567 	 9.475883 	 0.916188 	 0.728938 	 0.721688 	 0.062062 	  
 2.799239 	 13.916061 	 7.841008 	 0.913938 	 0.727187 	 0.722500 	 0.086688 	  
 6.124008 	 11.589508 	 10.081101 	 0.914375 	 0.727125 	 0.720875 	 0.087063 	  
 9.244418 	 8.948557 	 9.515183 	 0.916312 	 0.727688 	 0.720938 	 0.078813 	  
 9.778896 	 9.262956 	 9.004284 	 0.916125 	 0.727625 	 0.721063 	 0.076250 	  
 9.330878 	 10.193577 	 7.125751 	 0.916500 	 0.727875 	 0.720938 	 0.070062 	  
 7.609543 	 10.709191 	 3.415843 	 0.914875 	 0.727688 	 0.720938 	 0.085687 	  
 5.880349 	 9.652810 	 1.812408 	 0.915687 	 0.729875 	 0.722000 	 0.057188 	  
 6.092568 	 7.942480 	 4.697018 	 0.916563 	 0.729938 	 0.721562 	 0.049375 	  
 8.529160 	 7.213074 	 0.570532 	 0.915063 	 0.730375 	 0.722938 	 0.050750 	  
 10.313375 	 6.848372 	 4.068220 	 0.916875 	 0.730437 	 0.721438 	 0.054375 	  
 10.305515 	 7.804144 	 0.743451 	 0.916375 	 0.729563 	 0.721313 	 0.072938 	  
 10.195475 	 8.244303 	 -4.632771 	 0.917188 	 0.730000 	 0.721562 	 0.061250 	  
 9.055779 	 7.716113 	 0.594112 	 0.915250 	 0.731375 	 0.723313 	 0.040813 	  
 6.847126 	 5.477592 	 2.213266 	 0.915125 	 0.729938 	 0.722438 	 0.070438 	  
 9.212978 	 4.182268 	 -0.419825 	 0.915438 	 0.730125 	 0.723250 	 0.059188 	  
 13.504524 	 6.056086 	 0.138233 	 0.915250 	 0.731812 	 0.723438 	 0.047125 	  
 13.001486 	 6.974131 	 6.111814 	 0.917438 	 0.732000 	 0.722125 	 0.039375 	  
 10.533454 	 6.030934 	 6.662012 	 0.917063 	 0.732313 	 0.722688 	 0.038187 	  
 9.299438 	 6.710036 	 8.163267 	 0.915438 	 0.730688 	 0.723375 	 0.063313 	  
 9.063639 	 7.992784 	 11.252237 	 0.917375 	 0.731313 	 0.721625 	 0.046687 	  
 10.360534 	 10.331912 	 3.620202 	 0.915250 	 0.729875 	 0.723250 	 0.068437 	  
 13.229425 	 11.099046 	 0.263993 	 0.917312 	 0.730563 	 0.721500 	 0.045687 	  
 14.691380 	 11.237381 	 -0.419825 	 0.914875 	 0.731125 	 0.723187 	 0.053500 	  
 13.748183 	 11.249957 	 0.051773 	 0.915375 	 0.729375 	 0.721438 	 0.067875 	  
 13.598844 	 11.765572 	 4.492659 	 0.917000 	 0.730812 	 0.721625 	 0.043188 	  
 13.268725 	 12.507553 	 5.262937 	 0.914750 	 0.729063 	 0.723000 	 0.070500 	  
 12.309808 	 11.551780 	 6.269013 	 0.917063 	 0.728938 	 0.721313 	 0.061187 	  
 12.388408 	 11.400869 	 6.606992 	 0.914312 	 0.730063 	 0.723125 	 0.060312 	  
 15.131539 	 14.217884 	 2.284006 	 0.915063 	 0.728063 	 0.721063 	 0.081875 	  
 17.575991 	 16.091702 	 8.839225 	 0.916438 	 0.729437 	 0.721688 	 0.059000 	  
 14.612781 	 14.808954 	 6.143254 	 0.914312 	 0.727500 	 0.722562 	 0.086250 	  
 7.774603 	 12.092547 	 5.435856 	 0.916312 	 0.727250 	 0.720750 	 0.069750 	  
 3.137218 	 10.382216 	 2.763465 	 0.913938 	 0.728688 	 0.722938 	 0.068187 	  
 6.037548 	 10.118121 	 3.800981 	 0.914188 	 0.727187 	 0.721500 	 0.081625 	  
 12.325528 	 9.577355 	 2.653425 	 0.916188 	 0.727500 	 0.720938 	 0.058750 	  
 14.604921 	 7.980208 	 3.439422 	 0.916063 	 0.728563 	 0.721187 	 0.063813 	  
 12.954326 	 7.112467 	 4.146820 	 0.915563 	 0.728000 	 0.721187 	 0.079688 	  
 10.517734 	 5.590776 	 5.019277 	 0.914188 	 0.727000 	 0.722187 	 0.085187 	  
 8.584180 	 3.981053 	 -1.410182 	 0.914250 	 0.727750 	 0.722750 	 0.077375 	  
 7.098645 	 2.899520 	 1.584468 	 0.914375 	 0.728375 	 0.723000 	 0.075250 	  
 6.839266 	 2.484514 	 4.854218 	 0.915687 	 0.728125 	 0.721250 	 0.075500 	  
 7.075065 	 3.364831 	 3.785261 	 0.915125 	 0.729812 	 0.722812 	 0.053125 	  
 6.524867 	 4.131964 	 3.038564 	 0.914813 	 0.730313 	 0.723063 	 0.053125 	  
 5.738869 	 3.415135 	 3.431562 	 0.917063 	 0.729500 	 0.721438 	 0.055375 	  
 5.550230 	 3.088160 	 0.295433 	 0.915000 	 0.729125 	 0.723125 	 0.068812 	  
 5.841049 	 2.974976 	 -3.587395 	 0.915000 	 0.731437 	 0.723187 	 0.043125 	  
 2.807099 	 1.516165 	 -1.080063 	 0.915125 	 0.731187 	 0.723375 	 0.045812 	  
 0.818525 	 -2.269199 	 -7.305163 	 0.915625 	 0.730313 	 0.722625 	 0.061375 	  
 4.685633 	 -5.161670 	 -3.901794 	 0.917625 	 0.730875 	 0.721625 	 0.048688 	  
 9.134378 	 -6.004259 	 2.394046 	 0.917500 	 0.731000 	 0.721750 	 0.044625 	  
 10.391974 	 -6.318658 	 1.663068 	 0.916938 	 0.730313 	 0.721688 	 0.058438 	  
 10.902873 	 -4.608327 	 3.683082 	 0.917750 	 0.730625 	 0.721750 	 0.051625 	  
 6.799966 	 -1.992528 	 9.145764 	 0.917250 	 0.731875 	 0.722250 	 0.042188 	  
 0.952145 	 1.226918 	 7.809568 	 0.915375 	 0.729750 	 0.722562 	 0.067625 	  
 2.532000 	 5.502744 	 9.601643 	 0.917250 	 0.731500 	 0.721938 	 0.045500 	  
 8.537020 	 9.439019 	 8.123967 	 0.915000 	 0.729938 	 0.723250 	 0.064312 	  
 12.081869 	 10.419944 	 8.068947 	 0.917438 	 0.729625 	 0.721375 	 0.054000 	  
 12.820706 	 11.941635 	 8.744905 	 0.916125 	 0.730750 	 0.722688 	 0.051938 	  
 14.070442 	 14.092124 	 7.966768 	 0.914750 	 0.728688 	 0.723063 	 0.071063 	  
 12.482728 	 15.148505 	 13.885329 	 0.917188 	 0.729500 	 0.721375 	 0.056000 	  
 8.576320 	 14.255612 	 9.302963 	 0.914500 	 0.730000 	 0.723187 	 0.061625 	  
 6.768526 	 12.872256 	 8.045368 	 0.916500 	 0.727875 	 0.721000 	 0.071438 	  
 9.173678 	 12.381794 	 6.968551 	 0.914750 	 0.729187 	 0.722750 	 0.061875 	  
 11.044352 	 10.658887 	 6.418353 	 0.914563 	 0.727688 	 0.722000 	 0.083500 	  
 11.413771 	 8.734765 	 6.606992 	 0.916438 	 0.728500 	 0.721125 	 0.059438 	  
 8.725660 	 8.634158 	 4.052500 	 0.914125 	 0.727625 	 0.722562 	 0.081375 	  
 4.206174 	 9.212652 	 3.423703 	 0.915687 	 0.727250 	 0.721000 	 0.080125 	  
 2.036821 	 9.552203 	 4.649859 	 0.916125 	 0.728750 	 0.721500 	 0.061812 	  
 4.386954 	 9.690538 	 1.490149 	 0.914000 	 0.728563 	 0.722938 	 0.061062 	  
 6.933586 	 9.212652 	 5.396556 	 0.916563 	 0.729187 	 0.721313 	 0.054562 	  
 7.075065 	 8.458094 	 3.062144 	 0.914813 	 0.727313 	 0.720938 	 0.084687 	  
 4.827112 	 6.483669 	 3.565182 	 0.914125 	 0.728875 	 0.722938 	 0.061375 	  
 2.186161 	 4.245148 	 1.521589 	 0.914188 	 0.729375 	 0.723063 	 0.060875 	  
 1.659543 	 3.415135 	 2.299726 	 0.915438 	 0.727812 	 0.721000 	 0.079875 	  
 5.188671 	 3.993629 	 3.565182 	 0.915750 	 0.729563 	 0.722562 	 0.055750 	  
 10.462714 	 5.075161 	 2.150387 	 0.914750 	 0.730250 	 0.723187 	 0.051438 	  
 13.480944 	 6.345333 	 2.299726 	 0.917125 	 0.729187 	 0.721313 	 0.051875 	  
 13.732464 	 6.571700 	 4.099660 	 0.914938 	 0.728812 	 0.723000 	 0.068937 	  
 14.762120 	 6.546549 	 1.105010 	 0.915188 	 0.731063 	 0.723375 	 0.047563 	  
 13.976123 	 7.351410 	 6.567692 	 0.915000 	 0.730812 	 0.723375 	 0.050375 	  
 11.822490 	 7.791569 	 3.667362 	 0.915125 	 0.731125 	 0.723500 	 0.043875 	  
 13.842503 	 8.193999 	 0.578392 	 0.916000 	 0.731750 	 0.723187 	 0.034500 	  
 17.890390 	 8.143695 	 -1.921080 	 0.915438 	 0.731563 	 0.723438 	 0.044187 	  
 16.758554 	 4.169692 	 0.932091 	 0.917188 	 0.731750 	 0.722375 	 0.040250 	  
 14.172622 	 0.824487 	 0.719871 	 0.917687 	 0.732000 	 0.722187 	 0.040438 	  
 11.783190 	 2.421634 	 5.978194 	 0.915312 	 0.731563 	 0.723688 	 0.055313 	  
 9.653137 	 5.703959 	 9.208644 	 0.917375 	 0.729563 	 0.721562 	 0.051000 	  
 11.681010 	 7.527473 	 7.990348 	 0.915188 	 0.731375 	 0.723375 	 0.045000 	  
 16.003996 	 9.112044 	 10.686319 	 0.915813 	 0.729313 	 0.721562 	 0.070500 	  
 18.141909 	 10.847527 	 10.686319 	 0.917188 	 0.731000 	 0.722313 	 0.044500 	  
 16.742834 	 11.438597 	 9.971061 	 0.915063 	 0.729125 	 0.723187 	 0.073813 	  
 14.298382 	 10.520552 	 8.021788 	 0.917063 	 0.730812 	 0.721750 	 0.049500 	  
 11.374471 	 11.715268 	 4.681298 	 0.914500 	 0.729125 	 0.723125 	 0.068062 	  
 8.411261 	 12.947712 	 2.071787 	 0.916500 	 0.728500 	 0.721250 	 0.069375 	  
 9.456637 	 14.997593 	 1.741668 	 0.916687 	 0.729938 	 0.722063 	 0.057688 	  
 12.844286 	 15.827607 	 -1.080063 	 0.914625 	 0.728000 	 0.722812 	 0.085312 	  
 13.606704 	 14.431675 	 0.892791 	 0.916687 	 0.728750 	 0.721250 	 0.060062 	  
 12.042569 	 13.148927 	 1.089290 	 0.914063 	 0.728750 	 0.722875 	 0.079000 	  
 5.715289 	 13.098623 	 0.036053 	 0.916375 	 0.727000 	 0.720875 	 0.071375 	  
 -0.729890 	 13.387870 	 6.379053 	 0.915250 	 0.728688 	 0.722438 	 0.059813 	  
 -2.773483 	 12.331490 	 3.439422 	 0.914000 	 0.727250 	 0.722562 	 0.087188 	  
 -0.384051 	 9.778570 	 4.178260 	 0.915125 	 0.727187 	 0.720750 	 0.089813 	  
 2.665619 	 8.219151 	 1.049990 	 0.915188 	 0.727375 	 0.720938 	 0.082750 	  
 2.579160 	 7.527473 	 -1.355162 	 0.914250 	 0.727750 	 0.722875 	 0.080500 	  
 1.015025 	 6.169270 	 2.307586 	 0.914563 	 0.729375 	 0.722625 	 0.055375 	  
 1.777442 	 4.873946 	 6.449793 	 0.916563 	 0.727875 	 0.721063 	 0.076688 	  
 3.852476 	 4.295452 	 5.239357 	 0.916250 	 0.728125 	 0.721187 	 0.077938 	  
 3.718856 	 5.314105 	 4.359039 	 0.915875 	 0.730250 	 0.722562 	 0.055625 	  
 3.207958 	 4.798490 	 1.851708 	 0.914750 	 0.730625 	 0.723375 	 0.058000 	  
 7.326584 	 4.572123 	 2.527665 	 0.914750 	 0.729250 	 0.723125 	 0.067687 	  
 14.172622 	 4.295452 	 -0.742084 	 0.915000 	 0.729437 	 0.723063 	 0.070313 	  
 16.216215 	 3.138464 	 -2.958597 	 0.916438 	 0.731563 	 0.722438 	 0.044187 	  
 13.504524 	 0.811911 	 -0.710644 	 0.917250 	 0.731500 	 0.722250 	 0.046125 	  
 8.026122 	 -1.577521 	 2.417626 	 0.915188 	 0.729750 	 0.723250 	 0.068937 	  
 5.471630 	 -3.300428 	 -1.504502 	 0.915625 	 0.730750 	 0.723500 	 0.063063 	  
 8.552740 	 -2.923149 	 3.769541 	 0.915563 	 0.731750 	 0.723438 	 0.047625 	  
 12.089729 	 -1.124787 	 0.963530 	 0.916250 	 0.732000 	 0.722750 	 0.041813 	  
 13.905383 	 0.925095 	 3.022844 	 0.917750 	 0.732250 	 0.722313 	 0.035125 	  
 14.636361 	 3.075584 	 3.698802 	 0.915563 	 0.732250 	 0.723500 	 0.050563 	  
 13.528104 	 2.044355 	 5.931034 	 0.916875 	 0.729938 	 0.721625 	 0.061562 	  
 11.751750 	 1.981475 	 1.930307 	 0.915250 	 0.731500 	 0.723438 	 0.043188 	  
 11.201552 	 4.911674 	 0.924231 	 0.916563 	 0.729688 	 0.721562 	 0.067687 	  
 13.347325 	 6.835796 	 5.459436 	 0.917500 	 0.731187 	 0.722313 	 0.044062 	  
 12.034709 	 5.729111 	 8.147547 	 0.915063 	 0.729625 	 0.723187 	 0.068437 	  
 10.580614 	 6.106390 	 7.227930 	 0.917438 	 0.729938 	 0.721500 	 0.053562 	  
 8.709940 	 8.043088 	 6.528392 	 0.914625 	 0.730375 	 0.723375 	 0.052875 	  
 7.004325 	 10.130697 	 5.333676 	 0.915063 	 0.728688 	 0.721688 	 0.072563 	  
 6.949305 	 13.513630 	 4.225420 	 0.917312 	 0.730000 	 0.721375 	 0.057250 	  
 8.709940 	 16.770803 	 3.172183 	 0.914625 	 0.727812 	 0.722875 	 0.083062 	  
 11.515951 	 15.827607 	 14.451247 	 0.916875 	 0.728187 	 0.721250 	 0.056938 	  
 11.838210 	 13.098623 	 10.010361 	 0.914625 	 0.729313 	 0.722938 	 0.063125 	  
 11.193692 	 12.369218 	 12.368354 	 0.915188 	 0.726875 	 0.720875 	 0.093750 	  
 8.654920 	 13.538782 	 8.336187 	 0.915813 	 0.729000 	 0.722187 	 0.058500 	  
 4.685633 	 13.840605 	 5.498736 	 0.914438 	 0.727250 	 0.722562 	 0.088000 	  
 1.077905 	 12.180578 	 0.326873 	 0.914938 	 0.726875 	 0.720938 	 0.083875 	  
 -0.226851 	 8.055664 	 -2.141159 	 0.916312 	 0.727438 	 0.720938 	 0.074438 	  
 1.070045 	 2.798913 	 -2.086140 	 0.914875 	 0.727875 	 0.721500 	 0.080250 	  
 2.406240 	 -0.445685 	 3.085724 	 0.914375 	 0.728875 	 0.722938 	 0.067500 	  
 2.146861 	 -0.407957 	 0.814191 	 0.916875 	 0.728313 	 0.721187 	 0.057563 	  
 2.657759 	 2.710881 	 6.496953 	 0.916875 	 0.728437 	 0.721438 	 0.056813 	  
 4.756373 	 4.710458 	 4.178260 	 0.914500 	 0.729625 	 0.722938 	 0.058250 	  
 7.035765 	 3.679230 	 6.410493 	 0.916125 	 0.728125 	 0.721187 	 0.075813 	  
 11.759610 	 1.994051 	 4.736318 	 0.916813 	 0.730187 	 0.722438 	 0.053625 	  
 16.546334 	 0.447208 	 3.777401 	 0.916875 	 0.730563 	 0.722187 	 0.050375 	  
 18.519188 	 -0.722356 	 6.324033 	 0.917500 	 0.729625 	 0.721625 	 0.066812 	  
 19.383785 	 0.157961 	 9.075024 	 0.915250 	 0.730563 	 0.723438 	 0.053437 	  
 17.968990 	 2.798913 	 8.752765 	 0.917625 	 0.730750 	 0.721688 	 0.041000 	  
 13.433785 	 5.465016 	 2.488366 	 0.918250 	 0.731063 	 0.721688 	 0.039250 	  
 10.533454 	 6.622004 	 1.262210 	 0.917687 	 0.731375 	 0.721875 	 0.040875 	  
 10.722093 	 5.565624 	 6.316173 	 0.917938 	 0.730688 	 0.721875 	 0.039313 	  
 12.962186 	 4.169692 	 3.494442 	 0.917750 	 0.731000 	 0.721938 	 0.040438 	  
 16.711394 	 5.641079 	 5.679515 	 0.917438 	 0.732000 	 0.722562 	 0.040375 	  
 18.071169 	 7.766417 	 10.049661 	 0.915438 	 0.729938 	 0.723313 	 0.065562 	  
 14.840720 	 7.766417 	 8.226147 	 0.917687 	 0.730563 	 0.721688 	 0.041625 	  
 9.488077 	 8.558702 	 6.386913 	 0.915125 	 0.731000 	 0.723438 	 0.059938 	  
 7.263704 	 8.759917 	 3.423703 	 0.917687 	 0.729938 	 0.721688 	 0.049313 	  
 9.495937 	 9.514475 	 1.152170 	 0.915438 	 0.731063 	 0.723375 	 0.042938 	  
 10.737813 	 10.872679 	 5.860295 	 0.915375 	 0.729625 	 0.721750 	 0.073000 	  
 11.429491 	 13.802877 	 9.342263 	 0.917375 	 0.730688 	 0.721812 	 0.056688 	  
 9.888936 	 16.355797 	 12.588433 	 0.914875 	 0.728750 	 0.723250 	 0.075875 	  
 7.806043 	 15.576087 	 3.832421 	 0.917188 	 0.729938 	 0.721500 	 0.053562 	  
 5.055052 	 10.658887 	 4.547679 	 0.914750 	 0.728563 	 0.722938 	 0.073500 	  
 5.039332 	 5.351832 	 1.930307 	 0.916500 	 0.727875 	 0.721125 	 0.073875 	  
 8.890719 	 4.735610 	 4.343320 	 0.914750 	 0.729250 	 0.723000 	 0.059063 	  
 11.311591 	 8.332335 	 5.561616 	 0.914875 	 0.726812 	 0.720875 	 0.091938 	  
 9.943956 	 11.539204 	 2.904944 	 0.916438 	 0.728750 	 0.721812 	 0.058813 	  
 5.110071 	 10.885255 	 3.439422 	 0.914188 	 0.727000 	 0.722562 	 0.082875 	  
 1.140784 	 8.445518 	 2.346886 	 0.916188 	 0.727125 	 0.720875 	 0.083625 	  
 1.628103 	 7.112467 	 3.879581 	 0.916250 	 0.728812 	 0.721375 	 0.056125 	  
 4.630613 	 8.193999 	 4.107520 	 0.916875 	 0.728688 	 0.721375 	 0.055125 	  
 5.424470 	 8.722190 	 0.908511 	 0.914563 	 0.727563 	 0.722063 	 0.085625 	  
 2.036821 	 7.037011 	 0.649132 	 0.914250 	 0.729000 	 0.722938 	 0.062750 	  
 -0.635570 	 3.503166 	 1.340809 	 0.914438 	 0.729250 	 0.723000 	 0.057750 	  
 -0.116812 	 0.736455 	 0.680571 	 0.915063 	 0.727875 	 0.721063 	 0.077688 	  
 2.013241 	 -1.791312 	 -1.150803 	 0.916938 	 0.729938 	 0.721938 	 0.054125 	  
 7.358024 	 -2.608750 	 -0.152586 	 0.916000 	 0.730563 	 0.722438 	 0.057500 	  
 15.383058 	 -0.609172 	 2.621985 	 0.915063 	 0.730437 	 0.723250 	 0.054000 	  
 18.841447 	 3.666654 	 3.030704 	 0.915188 	 0.730812 	 0.723063 	 0.049625 	  
 16.129756 	 7.879600 	 1.498009 	 0.917687 	 0.730125 	 0.721688 	 0.048750 	  
 12.891446 	 10.369640 	 7.023571 	 0.915188 	 0.729750 	 0.723500 	 0.066125 	  
 12.789267 	 8.910829 	 4.201840 	 0.917750 	 0.731063 	 0.721688 	 0.040688 	  
 13.127245 	 7.741265 	 1.867428 	 0.918000 	 0.731000 	 0.721875 	 0.045125 	  
 12.553467 	 8.407791 	 1.961747 	 0.917500 	 0.731875 	 0.722500 	 0.035813 	  
 11.940389 	 7.640657 	 0.091073 	 0.915438 	 0.731938 	 0.723438 	 0.039250 	  
 13.905383 	 7.049587 	 1.246490 	 0.915625 	 0.730187 	 0.723500 	 0.064250 	  
 15.752477 	 6.131542 	 6.473373 	 0.917750 	 0.730500 	 0.721750 	 0.049750 	  
 13.308025 	 3.591198 	 10.136121 	 0.915438 	 0.731375 	 0.723438 	 0.047375 	  
 8.033982 	 3.075584 	 5.608775 	 0.916000 	 0.730250 	 0.721875 	 0.068625 	  
 5.157231 	 5.628504 	 6.520532 	 0.917250 	 0.731938 	 0.722313 	 0.041438 	  
 6.194748 	 7.904752 	 3.840281 	 0.915375 	 0.729688 	 0.723187 	 0.070187 	  
 10.454854 	 9.703114 	 0.546952 	 0.917500 	 0.730063 	 0.721688 	 0.050063 	  
 11.193692 	 12.683617 	 3.054284 	 0.915250 	 0.731250 	 0.723187 	 0.049563 	  
 6.414827 	 14.582587 	 6.174694 	 0.914813 	 0.729000 	 0.722625 	 0.076750 	  
 1.085764 	 14.469403 	 5.954614 	 0.917000 	 0.730187 	 0.721688 	 0.055750 	  
 0.213307 	 14.620314 	 4.256860 	 0.914563 	 0.728625 	 0.723063 	 0.079375 	  
 3.137218 	 13.262111 	 5.090017 	 0.916875 	 0.728187 	 0.721313 	 0.067625 	  
 7.672423 	 11.602084 	 4.539819 	 0.914687 	 0.729375 	 0.723000 	 0.058563 	  
 10.855713 	 10.143273 	 7.998208 	 0.914500 	 0.727250 	 0.721125 	 0.089063 	  
 9.032199 	 8.948557 	 6.976411 	 0.916375 	 0.728688 	 0.721688 	 0.062000 	  
 2.799239 	 8.382639 	 8.682025 	 0.914250 	 0.727125 	 0.722688 	 0.083750 	  
 -1.476587 	 7.187922 	 2.598405 	 0.916500 	 0.727250 	 0.720875 	 0.073563 	  
 -2.553404 	 6.269877 	 1.922447 	 0.916438 	 0.728500 	 0.721063 	 0.065562 	  
 -0.297591 	 6.760340 	 3.470862 	 0.916312 	 0.728750 	 0.721375 	 0.054187 	  
 6.163308 	 6.886099 	 4.869938 	 0.916750 	 0.728250 	 0.721250 	 0.062250 	  
 12.993626 	 6.559125 	 4.492659 	 0.916625 	 0.728187 	 0.721313 	 0.056688 	  
 15.783917 	 7.187922 	 5.687375 	 0.915625 	 0.729250 	 0.722375 	 0.057688 	  
 14.691380 	 7.703537 	 0.979250 	 0.914750 	 0.728063 	 0.722625 	 0.082500 	  
 12.011129 	 6.898675 	 0.059633 	 0.914813 	 0.728625 	 0.722938 	 0.079000 	  
 8.631340 	 6.206998 	 -2.722798 	 0.914875 	 0.728938 	 0.723125 	 0.073188 	  
 8.544880 	 4.006205 	 2.346886 	 0.917250 	 0.729000 	 0.721438 	 0.057250 	  
 12.129029 	 0.749031 	 -0.427685 	 0.914687 	 0.730375 	 0.723375 	 0.058438 	  
 12.522027 	 -0.131286 	 -1.850340 	 0.915813 	 0.729750 	 0.721688 	 0.070438 	  
 10.313375 	 1.817988 	 -0.411965 	 0.915375 	 0.729625 	 0.723250 	 0.071375 	  
 9.723877 	 3.578622 	 1.553029 	 0.917438 	 0.731250 	 0.721938 	 0.042250 	  
 11.083652 	 3.867869 	 -0.129006 	 0.917750 	 0.730563 	 0.721875 	 0.054562 	  
 12.278368 	 3.226495 	 1.749528 	 0.917750 	 0.730437 	 0.721812 	 0.053375 	  
 14.408421 	 3.301951 	 3.832421 	 0.917625 	 0.730313 	 0.721938 	 0.054000 	  
 19.996863 	 4.987130 	 2.551245 	 0.917938 	 0.731313 	 0.721750 	 0.040563 	  
 22.512055 	 7.527473 	 4.634139 	 0.915938 	 0.732000 	 0.723500 	 0.033063 	  
 17.796070 	 9.841450 	 12.187574 	 0.915188 	 0.729875 	 0.722812 	 0.069000 	  
 11.712450 	 10.017513 	 6.096094 	 0.917687 	 0.731250 	 0.721938 	 0.034938 	  
 8.356241 	 10.759495 	 11.362277 	 0.915250 	 0.731313 	 0.723438 	 0.057375 	  
 5.786029 	 10.646311 	 8.666306 	 0.917188 	 0.729875 	 0.721750 	 0.062312 	  
 7.153665 	 10.533128 	 6.512673 	 0.915063 	 0.731000 	 0.723438 	 0.048188 	  
 9.684577 	 11.463749 	 7.408710 	 0.915750 	 0.729313 	 0.721438 	 0.070250 	  
 8.560600 	 10.709191 	 7.644509 	 0.917250 	 0.730375 	 0.721750 	 0.053500 	  
 6.642766 	 10.419944 	 9.507323 	 0.915000 	 0.729938 	 0.723313 	 0.067500 	  
 5.495210 	 11.564356 	 9.137904 	 0.916000 	 0.728563 	 0.721562 	 0.074688 	  
 4.434114 	 13.953789 	 6.646292 	 0.915750 	 0.729563 	 0.722500 	 0.057938 	  
 5.298711 	 13.727421 	 7.746689 	 0.915000 	 0.727812 	 0.721187 	 0.082875 	  
 8.741380 	 11.514052 	 7.785988 	 0.916563 	 0.729500 	 0.721750 	 0.057750 	  
 9.826056 	 11.312837 	 5.412276 	 0.914125 	 0.726938 	 0.722688 	 0.085125 	  
 7.279424 	 11.413445 	 6.339753 	 0.916625 	 0.727688 	 0.721063 	 0.068000 	  
 4.402674 	 9.363563 	 6.355473 	 0.914312 	 0.728875 	 0.723000 	 0.062000 	  
 1.305844 	 6.370485 	 5.923174 	 0.914188 	 0.727187 	 0.722688 	 0.085938 	  
 -0.949969 	 4.484091 	 3.918881 	 0.914188 	 0.727375 	 0.722688 	 0.081812 	  
 0.260467 	 3.867869 	 0.201113 	 0.914500 	 0.728063 	 0.723000 	 0.079813 	  
 5.117931 	 2.144963 	 -0.537725 	 0.914500 	 0.727313 	 0.722688 	 0.082500 	  
 6.642766 	 -0.558868 	 -0.050406 	 0.914375 	 0.729187 	 0.723125 	 0.067875 	  
 3.317997 	 -0.508565 	 -0.396245 	 0.916938 	 0.728500 	 0.721375 	 0.068437 	  
 0.677046 	 1.377829 	 -0.812824 	 0.914750 	 0.729000 	 0.723125 	 0.067062 	  
 0.079688 	 2.044355 	 2.299726 	 0.916312 	 0.730187 	 0.722375 	 0.052187 	  
 1.478763 	 2.107235 	 0.798471 	 0.917250 	 0.730563 	 0.721562 	 0.050688 	  
 5.558090 	 0.371753 	 1.568749 	 0.917063 	 0.729000 	 0.721562 	 0.074250 	  
 12.121169 	 -0.936147 	 4.445499 	 0.917375 	 0.729875 	 0.721812 	 0.043625 	  
 18.739267 	 0.585544 	 6.960691 	 0.915312 	 0.731250 	 0.723562 	 0.054500 	  
 22.315556 	 3.100736 	 6.426213 	 0.915250 	 0.731437 	 0.723500 	 0.053000 	  
 22.771434 	 2.824065 	 2.810625 	 0.917875 	 0.730563 	 0.721938 	 0.059000 	  
 19.147986 	 3.452863 	 3.596622 	 0.915813 	 0.730688 	 0.723375 	 0.066437 	  
 14.825000 	 3.540894 	 6.418353 	 0.916063 	 0.730437 	 0.722000 	 0.064375 	  
 16.562054 	 3.452863 	 0.719871 	 0.917875 	 0.730938 	 0.721938 	 0.045000 	  
 22.362716 	 5.024857 	 -2.927157 	 0.917875 	 0.732187 	 0.722375 	 0.033875 	  
 24.649968 	 6.760340 	 4.697018 	 0.915312 	 0.730187 	 0.723562 	 0.062500 	  
 22.024737 	 6.735188 	 4.783478 	 0.917563 	 0.729938 	 0.722000 	 0.040250 	  
 20.012583 	 9.036588 	 5.710955 	 0.915312 	 0.731000 	 0.723313 	 0.060937 	  
 16.986493 	 13.073471 	 5.703095 	 0.917500 	 0.729875 	 0.721875 	 0.059063 	  
 12.726387 	 13.526206 	 6.331893 	 0.915063 	 0.731063 	 0.723625 	 0.048938 	  
 10.502014 	 11.287685 	 6.693452 	 0.915750 	 0.729375 	 0.721688 	 0.066062 	  
 10.604194 	 10.256457 	 7.424430 	 0.917125 	 0.730437 	 0.721688 	 0.050500 	  
 10.486294 	 10.168425 	 12.384074 	 0.914938 	 0.730250 	 0.723313 	 0.065812 	  
 9.260138 	 9.539627 	 3.604482 	 0.916438 	 0.728750 	 0.721500 	 0.073938 	  
 4.960732 	 7.841872 	 2.228986 	 0.915938 	 0.729688 	 0.722562 	 0.059438 	  
 -0.454791 	 7.275954 	 3.321523 	 0.914687 	 0.727938 	 0.721500 	 0.082750 	  
 -1.217208 	 7.728689 	 4.217560 	 0.916750 	 0.729500 	 0.721500 	 0.056625 	  
 2.264761 	 9.288108 	 3.518022 	 0.914250 	 0.727125 	 0.722625 	 0.083875 	  
 6.469847 	 11.614660 	 4.524099 	 0.916750 	 0.727563 	 0.721187 	 0.067687 	  
 6.265488 	 12.935136 	 7.896028 	 0.915375 	 0.729000 	 0.722438 	 0.063688 	  
 1.635963 	 12.859680 	 5.663795 	 0.914125 	 0.727000 	 0.722688 	 0.085625 	  
 -2.286165 	 12.922560 	 1.883148 	 0.914625 	 0.727250 	 0.721187 	 0.080250 	  
 -2.938542 	 13.828029 	 1.513729 	 0.915438 	 0.727938 	 0.721187 	 0.081187 	  
 -0.824209 	 15.249112 	 0.994970 	 0.914375 	 0.727625 	 0.722875 	 0.084812 	  
 1.958222 	 14.607738 	 0.759171 	 0.915375 	 0.729250 	 0.722125 	 0.059938 	  
 6.422687 	 12.947712 	 1.521589 	 0.916375 	 0.729250 	 0.722187 	 0.056375 	  
 8.977179 	 11.048742 	 0.994970 	 0.914875 	 0.728125 	 0.723063 	 0.078250 	  
 9.118658 	 9.288108 	 -3.194396 	 0.917125 	 0.729688 	 0.721562 	 0.056750 	  
 7.688143 	 7.489745 	 -0.034686 	 0.914938 	 0.730437 	 0.723375 	 0.061562 	  
 7.829623 	 4.886522 	 3.376543 	 0.916063 	 0.728938 	 0.721313 	 0.074688 	  
 8.151882 	 0.912519 	 -1.669561 	 0.917500 	 0.730875 	 0.722000 	 0.053312 	  
 7.365884 	 -1.967376 	 -2.125440 	 0.917500 	 0.731375 	 0.722000 	 0.041875 	  
 10.470574 	 0.811911 	 8.391206 	 0.917563 	 0.731313 	 0.721812 	 0.041938 	  
 17.882530 	 5.414712 	 8.752765 	 0.915750 	 0.731563 	 0.723562 	 0.050563 	  
 23.195873 	 8.017936 	 11.519476 	 0.915750 	 0.732125 	 0.723812 	 0.048063 	  
 22.079757 	 7.804144 	 10.167561 	 0.917813 	 0.731938 	 0.722313 	 0.038312 	  
 16.546334 	 5.050009 	 5.042857 	 0.917750 	 0.731875 	 0.722000 	 0.040250 	  
 14.432001 	 3.880445 	 1.270069 	 0.917375 	 0.732187 	 0.723000 	 0.037687 	  
 17.127973 	 5.540472 	 5.490876 	 0.915687 	 0.730375 	 0.723500 	 0.065750 	  
 19.478105 	 7.238226 	 9.240084 	 0.917625 	 0.729938 	 0.721812 	 0.044625 	  
 19.792504 	 9.640235 	 5.695235 	 0.915375 	 0.731375 	 0.723625 	 0.055313 	  
 16.169056 	 12.067395 	 4.492659 	 0.917500 	 0.729875 	 0.721875 	 0.056938 	  
 9.519517 	 11.715268 	 6.103954 	 0.915750 	 0.730875 	 0.723313 	 0.048500 	  
 4.960732 	 8.131119 	 -1.811041 	 0.915250 	 0.729250 	 0.722500 	 0.072813 	  
 3.813176 	 4.282876 	 -4.687791 	 0.917500 	 0.730375 	 0.721688 	 0.046625 	  
 3.490917 	 3.578622 	 0.153953 	 0.914938 	 0.728875 	 0.723500 	 0.071563 	  
 4.811392 	 5.138041 	 8.493386 	 0.917312 	 0.728875 	 0.721625 	 0.061437 	  
 10.423414 	 7.980208 	 8.493386 	 0.915063 	 0.729875 	 0.723250 	 0.062000 	  
 15.760337 	 8.206575 	 4.728458 	 0.915125 	 0.727938 	 0.721250 	 0.082937 	  
 17.733191 	 3.754686 	 1.482289 	 0.916750 	 0.729625 	 0.721750 	 0.056625 	  
 15.453798 	 -2.256623 	 4.924958 	 0.914500 	 0.727313 	 0.722750 	 0.092000 	  
 9.951816 	 -4.646055 	 3.816701 	 0.916563 	 0.728000 	 0.721500 	 0.060000 	  
 5.408750 	 -2.482990 	 13.421590 	 0.914250 	 0.729187 	 0.723063 	 0.070438 	  
 0.724206 	 0.648424 	 12.038235 	 0.914875 	 0.727187 	 0.721000 	 0.087750 	  
 -5.477314 	 3.251647 	 6.536252 	 0.916500 	 0.727938 	 0.721250 	 0.061187 	  
 -8.975003 	 6.533973 	 3.895301 	 0.916750 	 0.728375 	 0.721500 	 0.058250 	  
 -7.788147 	 10.985862 	 1.364389 	 0.916438 	 0.727750 	 0.721125 	 0.083937 	  
 -3.622360 	 12.532705 	 4.586979 	 0.914750 	 0.727875 	 0.722500 	 0.080375 	  
 0.142568 	 10.306760 	 0.790611 	 0.915250 	 0.729500 	 0.722375 	 0.050000 	  
 2.587020 	 6.823220 	 4.476939 	 0.915563 	 0.728125 	 0.721313 	 0.080500 	  
 5.125791 	 3.402559 	 -0.105426 	 0.914750 	 0.729750 	 0.723250 	 0.067687 	  
 7.051485 	 0.547816 	 -1.921080 	 0.915750 	 0.730625 	 0.722750 	 0.052875 	  
 6.540587 	 1.138886 	 2.904944 	 0.917250 	 0.730375 	 0.721812 	 0.049875 	  
 4.960732 	 4.873946 	 0.861351 	 0.917063 	 0.729375 	 0.721562 	 0.067937 	  
 4.772093 	 6.345333 	 -2.023260 	 0.915563 	 0.730187 	 0.723562 	 0.070187 	  
 5.927509 	 6.408213 	 5.152897 	 0.917500 	 0.731812 	 0.722375 	 0.043500 	  
 5.982529 	 6.848372 	 3.785261 	 0.917750 	 0.731500 	 0.722313 	 0.044750 	  
 6.752806 	 8.986285 	 0.845631 	 0.915687 	 0.730437 	 0.723812 	 0.062125 	  
 6.375527 	 8.885677 	 -0.891424 	 0.916312 	 0.730375 	 0.721875 	 0.061937 	  
 7.798183 	 6.634580 	 -3.037197 	 0.915750 	 0.730375 	 0.723500 	 0.068875 	  
 15.217999 	 4.773338 	 -0.176166 	 0.915875 	 0.731000 	 0.723625 	 0.064875 	  
 23.903271 	 3.905597 	 2.574825 	 0.918063 	 0.731000 	 0.722000 	 0.039375 	  
 25.718925 	 2.912096 	 10.112541 	 0.915250 	 0.731437 	 0.723500 	 0.051563 	  
 21.592438 	 2.082083 	 5.915314 	 0.916500 	 0.730187 	 0.721938 	 0.067000 	  
 19.069386 	 5.150617 	 9.475883 	 0.917563 	 0.731812 	 0.722375 	 0.040250 	  
 15.438078 	 9.740842 	 10.686319 	 0.915500 	 0.729625 	 0.723500 	 0.069750 	  
 9.605977 	 11.803300 	 7.188630 	 0.917687 	 0.730063 	 0.721875 	 0.047875 	  
 4.253334 	 11.551780 	 10.018221 	 0.915125 	 0.731187 	 0.723562 	 0.057813 	  
 3.522357 	 11.564356 	 14.270467 	 0.916500 	 0.728938 	 0.721562 	 0.070125 	  
 9.016479 	 13.802877 	 12.769212 	 0.916563 	 0.730625 	 0.722875 	 0.052375 	  
 10.399834 	 15.777303 	 12.659173 	 0.915000 	 0.728812 	 0.723187 	 0.073500 	  
 6.013969 	 16.355797 	 11.433017 	 0.917125 	 0.728938 	 0.721375 	 0.058750 	  
 3.396597 	 17.097778 	 10.026081 	 0.914687 	 0.728187 	 0.723187 	 0.081000 	  
 7.310864 	 16.167157 	 1.466569 	 0.916875 	 0.727938 	 0.721125 	 0.072063 	  
 14.094022 	 14.695770 	 4.854218 	 0.914312 	 0.728250 	 0.723250 	 0.063875 	  
 15.092239 	 14.268188 	 6.717032 	 0.915000 	 0.727000 	 0.721250 	 0.083500 	  
 11.429491 	 14.268188 	 8.021788 	 0.916750 	 0.728812 	 0.721562 	 0.063063 	  
 6.454127 	 11.828451 	 1.529449 	 0.914375 	 0.728437 	 0.723125 	 0.067437 	  
 2.508420 	 5.050009 	 -1.457342 	 0.914250 	 0.728313 	 0.723187 	 0.074625 	  
 1.494483 	 -0.722356 	 -2.117580 	 0.915438 	 0.729313 	 0.722438 	 0.056063 	  
 2.940718 	 0.195689 	 1.356529 	 0.916625 	 0.728750 	 0.721688 	 0.056688 	  
 4.410534 	 5.087737 	 4.280440 	 0.914625 	 0.729125 	 0.723187 	 0.063000 	  
 6.917866 	 8.583854 	 10.057521 	 0.915312 	 0.728125 	 0.721562 	 0.078813 	  
 8.167602 	 10.973286 	 9.782422 	 0.917000 	 0.730063 	 0.721812 	 0.056688 	  
 5.683850 	 11.576932 	 4.932818 	 0.914687 	 0.729313 	 0.723375 	 0.070688 	  
 3.545937 	 8.935981 	 1.560889 	 0.915063 	 0.729250 	 0.723375 	 0.071313 	  
 7.963242 	 5.817143 	 6.756332 	 0.917063 	 0.730625 	 0.722375 	 0.049313 	  
 15.658157 	 5.641079 	 12.156134 	 0.917750 	 0.729688 	 0.721750 	 0.065187 	  
 19.792504 	 7.313682 	 7.070731 	 0.915563 	 0.729938 	 0.723500 	 0.071813 	  
 16.978633 	 4.987130 	 4.021061 	 0.917125 	 0.731688 	 0.722688 	 0.044125 	  
 10.509874 	 -0.206742 	 1.663068 	 0.918063 	 0.732437 	 0.722688 	 0.034625 	  
 11.240852 	 -1.162514 	 -3.131516 	 0.916312 	 0.732063 	 0.723187 	 0.037750 	  
 16.279095 	 0.862215 	 -1.040763 	 0.917938 	 0.732063 	 0.722562 	 0.036125 	  
 20.680681 	 2.245570 	 -3.438055 	 0.917063 	 0.732187 	 0.723000 	 0.041063 	  
 24.579228 	 2.509666 	 -3.265136 	 0.915813 	 0.730750 	 0.723688 	 0.057250 	  
 24.162650 	 3.729534 	 -0.152586 	 0.917438 	 0.730000 	 0.721688 	 0.061062 	  
 19.729624 	 4.584699 	 1.364389 	 0.915500 	 0.731313 	 0.723625 	 0.041938 	  
 15.673877 	 4.043933 	 -1.575241 	 0.916813 	 0.729500 	 0.721812 	 0.061500 	  
 14.872160 	 2.723457 	 -3.351596 	 0.916188 	 0.731313 	 0.723187 	 0.047875 	  
 12.600627 	 1.717380 	 -1.881780 	 0.915813 	 0.729313 	 0.721875 	 0.069625 	  
 9.205118 	 0.082505 	 1.160030 	 0.917625 	 0.731063 	 0.722125 	 0.049688 	  
 5.707430 	 -1.024179 	 0.916371 	 0.915000 	 0.729688 	 0.723438 	 0.069187 	  
 2.822819 	 -0.936147 	 1.545169 	 0.916375 	 0.728750 	 0.721625 	 0.070187 	  
 1.683123 	 2.396482 	 -1.669561 	 0.917250 	 0.730125 	 0.722125 	 0.057438 	  
 -0.431211 	 7.640657 	 -2.266919 	 0.914687 	 0.727938 	 0.722812 	 0.084250 	  
 -1.602347 	 10.759495 	 -1.331582 	 0.917063 	 0.728313 	 0.721438 	 0.060187 	  
 -3.237222 	 9.338412 	 -1.496642 	 0.914687 	 0.729125 	 0.723250 	 0.062125 	  
 -5.107895 	 4.609851 	 -7.863221 	 0.915250 	 0.726812 	 0.721063 	 0.088438 	  
 -7.080749 	 0.120233 	 -5.206550 	 0.916563 	 0.728688 	 0.722063 	 0.060625 	  
 -9.611661 	 -2.181167 	 2.087507 	 0.914500 	 0.726938 	 0.722750 	 0.090250 	  
 -9.344422 	 0.308873 	 5.247217 	 0.915312 	 0.727125 	 0.721125 	 0.088875 	  
 -6.137552 	 5.339256 	 4.649859 	 0.915813 	 0.726875 	 0.721125 	 0.086000 	  
 -3.889599 	 7.527473 	 4.704878 	 0.915250 	 0.727750 	 0.721375 	 0.077313 	  
 -0.949969 	 4.861370 	 2.173967 	 0.914813 	 0.727125 	 0.721938 	 0.086313 	  
 5.903929 	 0.749031 	 6.858511 	 0.914563 	 0.727563 	 0.722750 	 0.085687 	  
 13.834643 	 -1.124787 	 5.938894 	 0.917000 	 0.729812 	 0.721562 	 0.057063 	  
 15.964696 	 1.453285 	 5.239357 	 0.917125 	 0.729063 	 0.721438 	 0.056063 	  
 14.141182 	 7.389138 	 3.903161 	 0.914813 	 0.729250 	 0.723187 	 0.073750 	  
 10.674933 	 12.256034 	 5.443716 	 0.917438 	 0.729313 	 0.721625 	 0.055938 	  
 8.348381 	 14.469403 	 4.594839 	 0.917375 	 0.729625 	 0.721438 	 0.057313 	  
 7.656703 	 13.136351 	 7.314390 	 0.917438 	 0.729750 	 0.721750 	 0.050438 	  
 10.800693 	 12.318914 	 6.096094 	 0.917687 	 0.729938 	 0.721750 	 0.061000 	  
 13.842503 	 13.098623 	 10.914258 	 0.917938 	 0.729938 	 0.721750 	 0.053500 	  
 16.003996 	 11.690116 	 10.552699 	 0.917000 	 0.729812 	 0.721875 	 0.068187 	  
 16.389135 	 10.344488 	 7.613069 	 0.916000 	 0.732437 	 0.723688 	 0.046500 	  
 15.107959 	 10.432520 	 7.628789 	 0.917500 	 0.731750 	 0.722688 	 0.038687 	  
 13.803203 	 9.841450 	 9.177204 	 0.915813 	 0.732000 	 0.723688 	 0.042813 	  
 15.367338 	 9.149772 	 6.300453 	 0.915813 	 0.730437 	 0.723688 	 0.061000 	  
 18.605648 	 10.369640 	 9.381563 	 0.917063 	 0.730063 	 0.721688 	 0.067312 	  
 19.540985 	 12.872256 	 11.464456 	 0.917500 	 0.731063 	 0.722562 	 0.044062 	  
 17.607431 	 14.570011 	 8.359767 	 0.915813 	 0.729938 	 0.723000 	 0.070000 	  
 16.601354 	 14.066972 	 6.944971 	 0.917563 	 0.731187 	 0.722125 	 0.041563 	  
 16.373415 	 12.759072 	 7.337970 	 0.915250 	 0.729750 	 0.723438 	 0.066187 	  
 16.459875 	 12.193154 	 6.119674 	 0.917750 	 0.729500 	 0.721625 	 0.061125 	  
 17.002213 	 11.086470 	 5.844575 	 0.915438 	 0.730812 	 0.723375 	 0.051688 	  
 16.758554 	 10.369640 	 5.506596 	 0.915375 	 0.728938 	 0.722000 	 0.074813 	  
 15.705317 	 10.432520 	 6.025354 	 0.917500 	 0.730563 	 0.721562 	 0.056438 	  
 14.023283 	 13.639390 	 9.688102 	 0.914750 	 0.728063 	 0.723125 	 0.081625 	  
 11.987549 	 14.393947 	 9.758842 	 0.916938 	 0.728500 	 0.721438 	 0.057875 	  
 10.502014 	 12.809376 	 6.182554 	 0.914687 	 0.729375 	 0.723000 	 0.061375 	  
 9.071499 	 11.363141 	 6.308313 	 0.915188 	 0.727250 	 0.721125 	 0.090813 	  
 8.867139 	 11.488901 	 0.908511 	 0.916188 	 0.729125 	 0.722313 	 0.060875 	  
 10.313375 	 11.514052 	 5.176477 	 0.914563 	 0.727313 	 0.722625 	 0.089563 	  
 8.387681 	 8.634158 	 1.694508 	 0.916813 	 0.727438 	 0.721063 	 0.073000 	  
 0.511986 	 4.836218 	 0.358312 	 0.916563 	 0.727938 	 0.721063 	 0.059313 	  
 -5.823153 	 3.364831 	 3.140743 	 0.917000 	 0.727625 	 0.721000 	 0.080250 	  
 -6.947130 	 3.905597 	 1.993187 	 0.914625 	 0.727688 	 0.722938 	 0.085562 	  
 -4.463378 	 2.974976 	 4.343320 	 0.914625 	 0.729625 	 0.723000 	 0.063813 	  
 1.926782 	 2.346178 	 4.618419 	 0.914563 	 0.729313 	 0.723125 	 0.062375 	  
 9.920376 	 4.219996 	 4.681298 	 0.915250 	 0.728000 	 0.721187 	 0.079125 	  
 16.216215 	 5.439864 	 3.195763 	 0.917188 	 0.729938 	 0.722187 	 0.052875 	  
 17.033653 	 3.943325 	 1.537309 	 0.915750 	 0.730625 	 0.722625 	 0.054312 	  
 13.669584 	 1.390405 	 6.111814 	 0.917438 	 0.729437 	 0.721500 	 0.064750 	  
 10.014696 	 1.138886 	 2.103227 	 0.915125 	 0.729187 	 0.723187 	 0.073250 	  
 10.808553 	 2.836641 	 0.719871 	 0.915750 	 0.729500 	 0.721812 	 0.067000 	  
 14.007563 	 4.094236 	 -1.480922 	 0.916000 	 0.729938 	 0.721875 	 0.068750 	  
 14.880020 	 4.031357 	 0.421192 	 0.915563 	 0.731500 	 0.723125 	 0.044125 	  
 14.809280 	 4.710458 	 -1.858200 	 0.918000 	 0.732063 	 0.722250 	 0.039000 	  
 13.056506 	 4.974554 	 -0.105426 	 0.917625 	 0.731938 	 0.722562 	 0.040875 	  
 8.324801 	 2.396482 	 0.334733 	 0.917813 	 0.731875 	 0.722187 	 0.036250 	  
 4.599173 	 0.447208 	 1.387969 	 0.917875 	 0.732437 	 0.722562 	 0.035875 	  
 6.116148 	 3.327103 	 3.879581 	 0.915938 	 0.730812 	 0.723562 	 0.062625 	  
 10.714233 	 7.426866 	 10.254020 	 0.917750 	 0.730563 	 0.721625 	 0.050438 	  
 13.646004 	 10.759495 	 4.280440 	 0.915500 	 0.731375 	 0.723562 	 0.055813 	  
 13.740324 	 12.419522 	 3.612342 	 0.917250 	 0.730187 	 0.721812 	 0.065437 	  
 13.543824 	 11.916483 	 4.524099 	 0.917687 	 0.731812 	 0.722313 	 0.042188 	  
 9.747456 	 10.294184 	 4.838498 	 0.915188 	 0.729688 	 0.723375 	 0.070500 	  
 6.658486 	 9.828874 	 2.158247 	 0.917687 	 0.730500 	 0.721500 	 0.051313 	  
 6.831406 	 11.375717 	 5.435856 	 0.915000 	 0.730812 	 0.723375 	 0.060562 	  
 8.026122 	 13.463326 	 4.249000 	 0.915625 	 0.729375 	 0.721500 	 0.073063 	  
 7.350164 	 15.412600 	 3.439422 	 0.917125 	 0.730500 	 0.722438 	 0.056875 	  
 5.998249 	 15.462904 	 4.531959 	 0.914750 	 0.728063 	 0.722125 	 0.082562 	  
 4.889992 	 12.909984 	 11.173637 	 0.916813 	 0.729750 	 0.721438 	 0.058750 	  
 3.868195 	 10.834951 	 5.514456 	 0.914500 	 0.728500 	 0.723000 	 0.083000 	  
 4.481273 	 10.118121 	 7.628789 	 0.916500 	 0.727688 	 0.721125 	 0.068500 	  
 7.130085 	 10.570856 	 3.549462 	 0.915125 	 0.729563 	 0.722625 	 0.060000 	  
 7.452344 	 11.036166 	 3.054284 	 0.914438 	 0.727875 	 0.722500 	 0.090063 	  
 4.363374 	 10.181001 	 4.697018 	 0.915375 	 0.727688 	 0.720938 	 0.087688 	  
 0.323347 	 8.395215 	 3.541602 	 0.916875 	 0.728250 	 0.721250 	 0.077000 	  
 -2.176125 	 7.829296 	 1.419409 	 0.915500 	 0.728500 	 0.721187 	 0.079438 	  
 -0.132532 	 7.351410 	 3.093584 	 0.914500 	 0.727938 	 0.722000 	 0.081250 	  
 5.353731 	 4.660155 	 2.307586 	 0.914687 	 0.728125 	 0.722875 	 0.080562 	  
 9.653137 	 2.534818 	 4.264720 	 0.916938 	 0.730250 	 0.721500 	 0.056063 	  
 9.951816 	 2.610273 	 -0.270486 	 0.917188 	 0.730250 	 0.721500 	 0.051688 	  
 8.969319 	 3.075584 	 1.537309 	 0.917188 	 0.730500 	 0.721938 	 0.053875 	  
 9.425197 	 2.698305 	 -1.252982 	 0.917438 	 0.730000 	 0.721438 	 0.055500 	  
 10.014696 	 2.434210 	 -0.993603 	 0.915438 	 0.729375 	 0.721812 	 0.076375 	  
 10.879293 	 2.660577 	 -1.842480 	 0.916188 	 0.730000 	 0.721500 	 0.068625 	  
 10.965752 	 2.396482 	 -4.129733 	 0.916563 	 0.730313 	 0.721625 	 0.069625 	  
 11.225132 	 2.974976 	 -3.217976 	 0.915500 	 0.732063 	 0.723313 	 0.049375 	  
 12.812847 	 3.339679 	 -0.246906 	 0.917500 	 0.731063 	 0.721750 	 0.061062 	  
 13.638144 	 4.094236 	 -0.915003 	 0.915813 	 0.730812 	 0.722938 	 0.067000 	  
 11.547391 	 3.440287 	 1.859568 	 0.916625 	 0.731000 	 0.721688 	 0.063938 	  
 11.625990 	 1.868292 	 0.877071 	 0.917563 	 0.730875 	 0.721812 	 0.057438 	  
 15.045079 	 1.742532 	 4.555539 	 0.917938 	 0.731250 	 0.721812 	 0.039625 	  
 17.992570 	 2.849217 	 5.891735 	 0.915813 	 0.732063 	 0.723500 	 0.048313 	  
 19.776784 	 2.773761 	 2.228986 	 0.916000 	 0.730250 	 0.721625 	 0.067125 	  
 17.120113 	 2.383906 	 5.860295 	 0.917500 	 0.731875 	 0.721938 	 0.038375 	  
 11.075792 	 4.308028 	 3.997481 	 0.915312 	 0.730437 	 0.723250 	 0.068437 	  
 5.314431 	 5.666231 	 2.739885 	 0.917500 	 0.730125 	 0.721500 	 0.063250 	  
 3.145078 	 8.458094 	 3.997481 	 0.915750 	 0.731688 	 0.723187 	 0.047063 	  
 5.094352 	 11.514052 	 6.662012 	 0.915375 	 0.729313 	 0.721500 	 0.073188 	  
 7.326584 	 11.061318 	 9.090744 	 0.917312 	 0.731125 	 0.721938 	 0.053375 	  
 9.047919 	 10.256457 	 6.300453 	 0.914813 	 0.729313 	 0.723125 	 0.072750 	  
 11.602410 	 9.250380 	 2.716305 	 0.917000 	 0.728812 	 0.721187 	 0.059625 	  
 12.451288 	 8.093392 	 1.592328 	 0.914563 	 0.729688 	 0.722938 	 0.067562 	  
 9.370178 	 4.811066 	 5.050717 	 0.915438 	 0.728250 	 0.721375 	 0.084375 	  
 6.517007 	 2.585121 	 6.441933 	 0.916375 	 0.728875 	 0.721375 	 0.054813 	  
 6.524867 	 3.440287 	 6.968551 	 0.914375 	 0.727625 	 0.722625 	 0.085375 	  
 7.318724 	 6.357909 	 6.096094 	 0.916375 	 0.727812 	 0.720938 	 0.078188 	  
 4.088275 	 7.137619 	 10.906398 	 0.916500 	 0.729125 	 0.721250 	 0.066437 	  
 0.142568 	 5.741687 	 11.826015 	 0.914375 	 0.729375 	 0.723063 	 0.066687 	  
 0.779225 	 5.867447 	 13.484470 	 0.914563 	 0.730000 	 0.723000 	 0.058313 	  
 2.579160 	 7.338834 	 11.338697 	 0.914250 	 0.729375 	 0.722938 	 0.061750 	  
 2.524140 	 6.357909 	 4.618419 	 0.914438 	 0.728500 	 0.722875 	 0.077125 	  
 1.793162 	 1.868292 	 2.967824 	 0.915375 	 0.728437 	 0.721063 	 0.083062 	  
 3.286557 	 -0.584020 	 -3.288716 	 0.915312 	 0.728750 	 0.721250 	 0.081375 	  
 8.851419 	 2.585121 	 -0.144726 	 0.914625 	 0.730625 	 0.723125 	 0.054187 	  
 10.792833 	 7.213074 	 -1.441622 	 0.917250 	 0.730000 	 0.721313 	 0.052250 	  
 7.829623 	 9.325836 	 1.765248 	 0.915687 	 0.729313 	 0.721250 	 0.079000 	  
 6.878566 	 8.998861 	 2.904944 	 0.917500 	 0.729688 	 0.721375 	 0.059625 	  
 9.142238 	 6.886099 	 -1.614541 	 0.915250 	 0.731563 	 0.723250 	 0.050688 	  
 12.301948 	 3.905597 	 2.802765 	 0.915125 	 0.731938 	 0.723375 	 0.043188 	  
 16.797854 	 1.868292 	 1.686648 	 0.917625 	 0.732125 	 0.722438 	 0.032438 	  
 19.580285 	 2.434210 	 2.441206 	 0.917938 	 0.732563 	 0.721688 	 0.037625 	  
 17.324472 	 3.251647 	 6.111814 	 0.917938 	 0.730812 	 0.721625 	 0.057188 	  
 12.639927 	 3.943325 	 3.360823 	 0.916625 	 0.731063 	 0.721750 	 0.060875 	  
 8.985039 	 5.288953 	 0.743451 	 0.917687 	 0.731125 	 0.721688 	 0.058750 	  
 9.503797 	 6.684884 	 3.840281 	 0.917687 	 0.732375 	 0.722125 	 0.048875 	  
 13.378765 	 8.156271 	 7.322250 	 0.915188 	 0.730063 	 0.723063 	 0.068750 	  
 19.030086 	 11.048742 	 3.745961 	 0.917750 	 0.731313 	 0.721500 	 0.044187 	  
 20.751421 	 15.726999 	 8.854945 	 0.915375 	 0.731625 	 0.723375 	 0.054312 	  
 15.956836 	 16.531860 	 8.878525 	 0.916438 	 0.730063 	 0.721438 	 0.067312 	  
 10.156175 	 14.092124 	 2.464786 	 0.917250 	 0.731313 	 0.722187 	 0.049938 	  
 10.132595 	 12.796800 	 -2.424119 	 0.915063 	 0.729812 	 0.723125 	 0.067312 	  
 13.355185 	 12.281186 	 2.802765 	 0.917312 	 0.729563 	 0.721250 	 0.058750 	  
 12.624207 	 11.627236 	 3.470862 	 0.914938 	 0.730938 	 0.723125 	 0.059188 	  
 9.543097 	 12.344066 	 7.864588 	 0.914938 	 0.728437 	 0.721187 	 0.083750 	  
 7.365884 	 13.777725 	 11.613796 	 0.916813 	 0.729875 	 0.721750 	 0.058563 	  
 3.805316 	 14.318491 	 14.844246 	 0.914500 	 0.728250 	 0.722875 	 0.083312 	  
 0.236887 	 15.211384 	 14.757786 	 0.916312 	 0.728313 	 0.721063 	 0.061437 	  
 -1.712386 	 15.789879 	 4.791338 	 0.914312 	 0.729187 	 0.722500 	 0.071063 	  
 -0.258291 	 12.784224 	 3.187903 	 0.915063 	 0.727688 	 0.720875 	 0.091438 	  
 2.461260 	 7.992784 	 -1.284422 	 0.916312 	 0.728938 	 0.721125 	 0.059688 	  
 6.446267 	 3.842717 	 -1.323722 	 0.916500 	 0.729000 	 0.721250 	 0.060750 	  
 9.197258 	 0.837063 	 -1.567381 	 0.916563 	 0.728375 	 0.721250 	 0.064375 	  
 8.599900 	 0.837063 	 -1.999680 	 0.914750 	 0.728187 	 0.721375 	 0.083187 	  
 6.179028 	 1.729956 	 -0.852124 	 0.914500 	 0.729688 	 0.722688 	 0.066250 	  
 5.864629 	 1.503589 	 3.777401 	 0.916750 	 0.729125 	 0.721187 	 0.061750 	  
 11.916809 	 0.749031 	 4.877798 	 0.916813 	 0.729250 	 0.721250 	 0.055063 	  
 17.269452 	 -0.043254 	 5.734535 	 0.916938 	 0.730437 	 0.721438 	 0.054062 	  
 16.145476 	 -0.822964 	 6.937111 	 0.917250 	 0.729688 	 0.721313 	 0.066687 	  
 11.468791 	 0.007050 	 8.823505 	 0.915250 	 0.729375 	 0.722562 	 0.073375 	  
 7.971102 	 1.189190 	 5.978194 	 0.915375 	 0.729625 	 0.721500 	 0.075188 	  
 7.020045 	 1.654500 	 2.016767 	 0.917375 	 0.731938 	 0.722063 	 0.044312 	  
 7.216545 	 1.478437 	 -1.811041 	 0.915438 	 0.730313 	 0.723125 	 0.068937 	  
 8.552740 	 0.874791 	 -3.343736 	 0.915188 	 0.730500 	 0.723375 	 0.060000 	  
 11.429491 	 1.314949 	 0.138233 	 0.915938 	 0.732437 	 0.723000 	 0.035813 	  
 12.003269 	 4.257724 	 5.726675 	 0.917188 	 0.732437 	 0.722438 	 0.042250 	  
 9.912516 	 7.187922 	 8.359767 	 0.917563 	 0.732313 	 0.721688 	 0.039063 	  
 9.503797 	 10.570856 	 11.079318 	 0.917687 	 0.732750 	 0.722125 	 0.032188 	  
 10.549174 	 12.784224 	 8.807785 	 0.915875 	 0.731125 	 0.723375 	 0.063688 	  
 11.028632 	 10.545704 	 12.336914 	 0.917438 	 0.731000 	 0.721562 	 0.048188 	  
 13.638144 	 7.162771 	 6.103954 	 0.915500 	 0.731063 	 0.723250 	 0.061625 	  
 15.273019 	 8.370063 	 3.447282 	 0.917563 	 0.730375 	 0.721500 	 0.054312 	  
 13.583124 	 10.935558 	 6.182554 	 0.915063 	 0.731750 	 0.723438 	 0.044437 	  
 7.263704 	 10.181001 	 2.331166 	 0.915500 	 0.729938 	 0.721562 	 0.073313 	  
 1.871762 	 9.313260 	 -4.585612 	 0.917312 	 0.731375 	 0.722063 	 0.043625 	  
 0.323347 	 10.193577 	 2.433346 	 0.914813 	 0.729313 	 0.723063 	 0.073750 	  
 4.339794 	 10.608583 	 3.926741 	 0.917500 	 0.730250 	 0.721187 	 0.054938 	  
 10.242635 	 10.470248 	 7.738829 	 0.914687 	 0.730375 	 0.723125 	 0.064875 	  
 14.471301 	 11.224805 	 5.506596 	 0.915438 	 0.728625 	 0.721000 	 0.084062 	  
 12.498448 	 12.746496 	 8.682025 	 0.916875 	 0.729938 	 0.721688 	 0.058500 	  
 7.342304 	 13.916061 	 5.742395 	 0.914063 	 0.727750 	 0.722562 	 0.093000 	  
 6.131868 	 13.626814 	 3.942461 	 0.916312 	 0.728750 	 0.721063 	 0.061250 	  
 7.829623 	 13.475902 	 -1.402322 	 0.914375 	 0.728625 	 0.722625 	 0.078500 	  
 9.433057 	 13.601662 	 -1.237262 	 0.915000 	 0.727812 	 0.720938 	 0.088750 	  
 8.922159 	 13.262111 	 1.851708 	 0.916375 	 0.728000 	 0.720875 	 0.059063 	  
 8.199041 	 12.671041 	 -0.655624 	 0.916625 	 0.728375 	 0.721063 	 0.079000 	  
 8.222621 	 12.067395 	 -4.200473 	 0.914500 	 0.728750 	 0.722750 	 0.082625 	  
 5.738869 	 9.740842 	 1.953887 	 0.914375 	 0.729812 	 0.722812 	 0.059500 	  
 0.032528 	 4.345756 	 -6.189046 	 0.914438 	 0.729938 	 0.722938 	 0.062875 	  
 -2.616284 	 2.333602 	 -5.756748 	 0.915125 	 0.728688 	 0.721000 	 0.075250 	  
 0.912845 	 2.874368 	 -9.474516 	 0.916813 	 0.730375 	 0.721562 	 0.055875 	  
 3.152938 	 1.528741 	 -9.953974 	 0.916813 	 0.730875 	 0.721625 	 0.052250 	  
 2.201881 	 -1.175090 	 -2.314079 	 0.916250 	 0.729688 	 0.721313 	 0.071688 	  
 5.581670 	 -3.048908 	 5.742395 	 0.915000 	 0.730812 	 0.723063 	 0.061375 	  
 9.008619 	 -4.205897 	 11.731696 	 0.915250 	 0.730187 	 0.723063 	 0.067312 	  
 8.246201 	 -5.589252 	 6.504813 	 0.915250 	 0.730563 	 0.723250 	 0.068875 	  
 9.228698 	 -4.897574 	 7.227930 	 0.917438 	 0.732375 	 0.721938 	 0.043500 	  
 14.911460 	 -1.036755 	 5.200057 	 0.917813 	 0.732563 	 0.721938 	 0.037750 	  
 18.943627 	 3.691806 	 0.916371 	 0.917563 	 0.732500 	 0.721750 	 0.039000 	  
 16.852873 	 4.496667 	 4.209700 	 0.917875 	 0.731563 	 0.721625 	 0.039625 	  
 13.968263 	 4.936826 	 3.973901 	 0.917625 	 0.732437 	 0.721875 	 0.037000 	  
 14.935040 	 8.520974 	 12.179714 	 0.915625 	 0.732812 	 0.723313 	 0.051438 	  
 16.003996 	 12.256034 	 10.269740 	 0.916875 	 0.730812 	 0.721688 	 0.063000 	  
 12.325528 	 12.909984 	 2.449066 	 0.915563 	 0.732250 	 0.723313 	 0.043188 	  
 9.142238 	 12.406946 	 1.977467 	 0.915813 	 0.730500 	 0.721438 	 0.069062 	  
 11.822490 	 12.092547 	 3.407983 	 0.917500 	 0.732063 	 0.721938 	 0.043625 	  
 11.060072 	 12.532705 	 5.915314 	 0.915250 	 0.730125 	 0.723187 	 0.070250 	  
 5.793889 	 13.501054 	 5.498736 	 0.917500 	 0.730500 	 0.721438 	 0.055063 	  
 3.215818 	 13.928637 	 3.470862 	 0.915312 	 0.731187 	 0.722875 	 0.054562 	  
 4.984312 	 12.595585 	 7.117891 	 0.914875 	 0.729625 	 0.723000 	 0.072063 	  
 8.206901 	 9.212652 	 0.153953 	 0.917250 	 0.730375 	 0.721187 	 0.054562 	  
 9.480217 	 5.452440 	 4.665579 	 0.914563 	 0.729812 	 0.722875 	 0.073063 	  
 7.892502 	 2.736033 	 8.163267 	 0.916312 	 0.728750 	 0.721125 	 0.074313 	  
 7.350164 	 4.282876 	 11.032158 	 0.914750 	 0.730063 	 0.722812 	 0.062125 	  
 8.041842 	 8.885677 	 8.226147 	 0.914813 	 0.727750 	 0.720875 	 0.091750 	  
 6.965025 	 12.683617 	 6.449793 	 0.916250 	 0.729688 	 0.721875 	 0.060937 	  
 5.235831 	 14.041820 	 6.198274 	 0.914250 	 0.728250 	 0.722625 	 0.088500 	  
 5.723149 	 11.451173 	 1.906727 	 0.915125 	 0.727563 	 0.720688 	 0.086563 	  
 4.685633 	 7.867024 	 2.511945 	 0.916563 	 0.728313 	 0.721000 	 0.066125 	  
 2.280481 	 5.553048 	 1.733808 	 0.916938 	 0.729187 	 0.721250 	 0.061875 	  
 2.233321 	 4.773338 	 2.857784 	 0.916500 	 0.728187 	 0.721000 	 0.069687 	  
 1.313704 	 4.270300 	 0.224693 	 0.915188 	 0.728563 	 0.721000 	 0.080875 	  
 1.911062 	 4.785914 	 2.449066 	 0.914438 	 0.730375 	 0.722625 	 0.055250 	  
 4.827112 	 4.433787 	 0.829911 	 0.916438 	 0.728875 	 0.721125 	 0.081062 	  
 7.255845 	 3.981053 	 2.480506 	 0.914750 	 0.729375 	 0.722938 	 0.081437 	  
 8.725660 	 3.465439 	 5.530176 	 0.914750 	 0.731063 	 0.723313 	 0.058938 	  
 10.384114 	 3.528318 	 5.294376 	 0.914875 	 0.729500 	 0.723125 	 0.071500 	  
 10.596334 	 3.654078 	 7.730969 	 0.915188 	 0.729500 	 0.723000 	 0.068062 	  
 10.124735 	 3.503166 	 2.244706 	 0.915188 	 0.731875 	 0.723375 	 0.047375 	  
 11.319451 	 3.389983 	 6.426213 	 0.915188 	 0.732063 	 0.723250 	 0.047313 	  
 14.840720 	 3.000128 	 5.129317 	 0.916188 	 0.730750 	 0.721688 	 0.065687 	  
 18.747127 	 2.358754 	 0.727731 	 0.916188 	 0.731187 	 0.721688 	 0.060250 	  
 20.334842 	 2.949824 	 2.339026 	 0.915500 	 0.731187 	 0.723250 	 0.062688 	  
 18.306969 	 4.534395 	 4.571259 	 0.915563 	 0.732625 	 0.723500 	 0.048750 	  
 15.107959 	 6.873523 	 2.810625 	 0.915563 	 0.731437 	 0.723438 	 0.067312 	  
 15.068659 	 7.301106 	 4.107520 	 0.917500 	 0.731688 	 0.721625 	 0.045750 	  
 15.241579 	 5.452440 	 3.407983 	 0.915125 	 0.731313 	 0.723250 	 0.059438 	  
 13.653864 	 4.672731 	 1.780968 	 0.917750 	 0.731000 	 0.721562 	 0.047188 	  
 13.213705 	 6.169270 	 -3.972534 	 0.915250 	 0.732000 	 0.723375 	 0.045125 	  
 11.405911 	 7.213074 	 2.889224 	 0.915875 	 0.730063 	 0.721313 	 0.074063 	  
 9.535237 	 7.351410 	 0.829911 	 0.917375 	 0.731688 	 0.721938 	 0.048375 	  
 7.601683 	 8.357487 	 6.779912 	 0.915063 	 0.729812 	 0.723000 	 0.076250 	  
 6.689926 	 10.646311 	 5.365116 	 0.917188 	 0.729625 	 0.721375 	 0.053000 	  
 9.629557 	 12.884832 	 9.357983 	 0.914750 	 0.730875 	 0.723187 	 0.058000 	  
 12.757827 	 13.262111 	 9.483743 	 0.915500 	 0.728563 	 0.721063 	 0.081750 	  
 10.557034 	 11.073894 	 4.940678 	 0.916875 	 0.730313 	 0.721938 	 0.058813 	  
 3.726716 	 9.074316 	 5.506596 	 0.914438 	 0.728375 	 0.722938 	 0.082500 	  
 0.001088 	 8.961133 	 4.516239 	 0.916563 	 0.728250 	 0.720875 	 0.063125 	  
 -1.413707 	 10.847527 	 6.418353 	 0.914000 	 0.729250 	 0.722750 	 0.067562 	  
 1.250824 	 9.929482 	 10.812079 	 0.914938 	 0.727875 	 0.720688 	 0.087000 	  
 8.694220 	 5.301529 	 4.979977 	 0.916563 	 0.729437 	 0.721187 	 0.063063 	  
 12.239068 	 0.434632 	 4.374759 	 0.914375 	 0.729125 	 0.722750 	 0.066125 	  
 10.077575 	 0.749031 	 4.736318 	 0.914500 	 0.729563 	 0.722625 	 0.057813 	  
 8.662780 	 5.741687 	 5.443716 	 0.915750 	 0.729750 	 0.721938 	 0.061812 	  
 8.662780 	 8.961133 	 4.272580 	 0.914500 	 0.729875 	 0.722750 	 0.061187 	  
 7.342304 	 8.131119 	 4.123240 	 0.914500 	 0.728313 	 0.722875 	 0.083375 	  
 7.059345 	 7.577777 	 5.608775 	 0.914687 	 0.728437 	 0.722812 	 0.079563 	  
 8.819979 	 6.030934 	 4.979977 	 0.914625 	 0.728938 	 0.723000 	 0.077375 	  
 10.635634 	 4.873946 	 3.690942 	 0.917125 	 0.729563 	 0.721375 	 0.064312 	  
 11.846070 	 6.232150 	 7.518749 	 0.917188 	 0.729812 	 0.721313 	 0.058813 	  
 13.787483 	 7.540049 	 5.883875 	 0.917375 	 0.730563 	 0.721438 	 0.052812 	  
 14.439861 	 6.647156 	 -1.724581 	 0.917687 	 0.731250 	 0.721625 	 0.041750 	  
 11.413771 	 6.383061 	 -2.762097 	 0.917625 	 0.731563 	 0.721625 	 0.047000 	  
 9.975396 	 7.363986 	 -4.522732 	 0.915000 	 0.731812 	 0.723375 	 0.044062 	  
 12.396268 	 7.087315 	 -6.550605 	 0.915875 	 0.731125 	 0.722375 	 0.062750 	  
 13.174405 	 6.332757 	 -1.213682 	 0.917125 	 0.730812 	 0.721688 	 0.062750 	  
 12.537747 	 5.150617 	 -0.828544 	 0.915875 	 0.730938 	 0.722812 	 0.065125 	  
 14.369121 	 6.420789 	 3.620202 	 0.915875 	 0.731125 	 0.723250 	 0.066375 	  
 15.398778 	 8.470670 	 1.513729 	 0.917750 	 0.731437 	 0.721938 	 0.041938 	  
 13.693164 	 8.470670 	 9.727402 	 0.915188 	 0.731437 	 0.723187 	 0.057750 	  
 13.693164 	 7.841872 	 4.689158 	 0.918000 	 0.730688 	 0.721562 	 0.046312 	  
 17.458091 	 10.948134 	 5.632355 	 0.915250 	 0.731938 	 0.723438 	 0.052750 	  
 18.016150 	 12.331490 	 5.168617 	 0.916438 	 0.730313 	 0.721438 	 0.065750 	  
 13.716744 	 11.426021 	 8.509106 	 0.917375 	 0.731750 	 0.721812 	 0.049313 	  
 7.578103 	 13.236959 	 8.021788 	 0.915125 	 0.730250 	 0.723125 	 0.066250 	  
 4.717073 	 15.903062 	 8.399066 	 0.917312 	 0.729437 	 0.721313 	 0.063125 	  
 3.357297 	 16.557012 	 7.762408 	 0.915188 	 0.730750 	 0.723125 	 0.057750 	  
 3.412317 	 14.469403 	 5.184337 	 0.915438 	 0.728812 	 0.721125 	 0.074813 	  
 3.789596 	 13.111199 	 0.028194 	 0.916813 	 0.730125 	 0.721875 	 0.057875 	  
 1.022885 	 12.369218 	 4.414059 	 0.914750 	 0.727938 	 0.722000 	 0.081875 	  
 -0.124672 	 11.740420 	 5.600915 	 0.916625 	 0.729437 	 0.721063 	 0.062813 	  
 1.077905 	 11.677540 	 2.889224 	 0.914250 	 0.728250 	 0.722562 	 0.084687 	  
 3.632396 	 10.218729 	 -0.325505 	 0.915563 	 0.728000 	 0.721125 	 0.084000 	  
 4.819252 	 7.514897 	 1.301509 	 0.916375 	 0.729500 	 0.721438 	 0.058688 	  
 4.001815 	 4.081661 	 -1.960380 	 0.914188 	 0.728625 	 0.722688 	 0.072375 	  
 2.893559 	 1.943747 	 -5.520949 	 0.914125 	 0.729125 	 0.722875 	 0.058813 	  
 -0.085372 	 2.270722 	 -4.860711 	 0.916938 	 0.729625 	 0.721187 	 0.059313 	  
 -1.217208 	 3.352255 	 0.924231 	 0.917000 	 0.728125 	 0.720875 	 0.063938 	  
 2.154721 	 3.389983 	 2.708445 	 0.916563 	 0.729563 	 0.721562 	 0.059563 	  
 7.067205 	 3.528318 	 5.820995 	 0.914750 	 0.728500 	 0.722812 	 0.074000 	  
 12.239068 	 4.006205 	 3.062144 	 0.916875 	 0.728375 	 0.721063 	 0.071875 	  
 16.782134 	 3.201343 	 6.182554 	 0.917250 	 0.729187 	 0.721187 	 0.065375 	  
 19.383785 	 2.031779 	 4.170400 	 0.915188 	 0.729375 	 0.722875 	 0.079750 	  
 17.961130 	 2.886944 	 6.158974 	 0.915000 	 0.729313 	 0.722938 	 0.076500 	  
 13.598844 	 4.773338 	 7.141470 	 0.917625 	 0.730688 	 0.721562 	 0.041625 	  
 9.983256 	 6.483669 	 5.349396 	 0.915438 	 0.730125 	 0.723125 	 0.064250 	  
 10.651354 	 5.716535 	 6.717032 	 0.915312 	 0.731625 	 0.723375 	 0.048188 	  
 15.571698 	 2.094659 	 5.215777 	 0.917125 	 0.731000 	 0.721500 	 0.065250 	  
 21.018660 	 0.811911 	 -0.356945 	 0.915563 	 0.732437 	 0.723250 	 0.045875 	  
 21.553138 	 1.164038 	 -1.370882 	 0.917687 	 0.732375 	 0.722375 	 0.037000 	  
 15.752477 	 0.774183 	 -4.923590 	 0.915563 	 0.732750 	 0.723375 	 0.042188 	  
 9.433057 	 0.107657 	 -3.768174 	 0.915750 	 0.730938 	 0.723187 	 0.070813 	  
 5.172951 	 0.120233 	 3.573042 	 0.917687 	 0.731063 	 0.721562 	 0.042563 	  
 4.135435 	 2.157539 	 2.920664 	 0.915438 	 0.732000 	 0.723375 	 0.048375 	  
 7.562384 	 4.609851 	 7.047151 	 0.916687 	 0.730250 	 0.721438 	 0.068937 	  
 9.951816 	 6.068662 	 9.059304 	 0.917500 	 0.731500 	 0.722125 	 0.045437 	  
 7.978962 	 5.766839 	 8.980705 	 0.915375 	 0.729875 	 0.723063 	 0.068250 	  
 8.183322 	 5.628504 	 9.782422 	 0.917687 	 0.729875 	 0.721375 	 0.049500 	  
 10.431274 	 7.917328 	 6.213993 	 0.915125 	 0.731000 	 0.723000 	 0.058063 	  
 11.272292 	 9.577355 	 14.687046 	 0.915625 	 0.729500 	 0.721375 	 0.075563 	  
 11.468791 	 9.275532 	 8.344047 	 0.917063 	 0.730750 	 0.721812 	 0.056813 	  
 10.588474 	 9.589931 	 7.565909 	 0.914687 	 0.728437 	 0.722375 	 0.083312 	  
 7.813903 	 10.344488 	 10.065381 	 0.916875 	 0.729250 	 0.721000 	 0.053000 	  
 5.149371 	 10.608583 	 7.809568 	 0.914625 	 0.729875 	 0.722812 	 0.065250 	  
 3.082198 	 10.885255 	 8.532686 	 0.914875 	 0.727563 	 0.720562 	 0.091188 	  
 1.235104 	 12.595585 	 4.005341 	 0.916750 	 0.729313 	 0.721438 	 0.063250 	  
 -0.431211 	 14.834106 	 0.342592 	 0.914250 	 0.727500 	 0.722438 	 0.082937 	  
 0.519846 	 14.243036 	 -0.569165 	 0.915500 	 0.727438 	 0.720625 	 0.086938 	  
 4.654193 	 13.501054 	 -0.168306 	 0.916625 	 0.728563 	 0.721063 	 0.055313 	  
 7.562384 	 12.369218 	 3.510162 	 0.916938 	 0.729125 	 0.721187 	 0.056313 	  
 6.721366 	 10.457672 	 1.238630 	 0.916687 	 0.728250 	 0.720875 	 0.061187 	  
 2.469120 	 7.288530 	 0.130373 	 0.916813 	 0.729563 	 0.721313 	 0.061375 	  
 -2.694883 	 4.521819 	 2.048207 	 0.914438 	 0.729125 	 0.722750 	 0.068937 	  
 -3.048582 	 3.314527 	 2.629845 	 0.914750 	 0.729563 	 0.722750 	 0.062375 	  
 2.720639 	 4.270300 	 3.274363 	 0.914750 	 0.729750 	 0.722750 	 0.062625 	  
 9.134378 	 5.050009 	 3.038564 	 0.915687 	 0.729000 	 0.721125 	 0.074500 	  
 12.325528 	 5.314105 	 4.343320 	 0.917438 	 0.730875 	 0.721688 	 0.055625 	  
 11.602410 	 6.043510 	 7.133611 	 0.917188 	 0.730812 	 0.721875 	 0.049500 	  
 11.688870 	 6.898675 	 0.429052 	 0.916875 	 0.729875 	 0.721313 	 0.068125 	  
 11.979689 	 7.804144 	 7.440150 	 0.915438 	 0.731313 	 0.723125 	 0.046750 	  
 13.080086 	 6.232150 	 0.814191 	 0.915500 	 0.731500 	 0.723375 	 0.039188 	  
 16.774274 	 4.546971 	 1.946027 	 0.915750 	 0.732625 	 0.723313 	 0.042750 	  
 19.666744 	 3.239071 	 4.649859 	 0.915813 	 0.731938 	 0.723000 	 0.043375 	  
 17.882530 	 1.654500 	 1.584468 	 0.917813 	 0.732063 	 0.722187 	 0.037000 	  
 13.394485 	 2.861792 	 1.207190 	 0.915875 	 0.732375 	 0.723187 	 0.040813 	  
 12.797127 	 6.810644 	 0.153953 	 0.915687 	 0.730250 	 0.722187 	 0.067062 	  
 12.875726 	 8.357487 	 2.071787 	 0.917563 	 0.731437 	 0.721562 	 0.046562 	  
 14.825000 	 8.080816 	 0.798471 	 0.915438 	 0.730250 	 0.723063 	 0.066875 	  
 19.132266 	 9.137196 	 2.417626 	 0.918000 	 0.730375 	 0.721438 	 0.046437 	  
 18.487748 	 10.583431 	 5.569476 	 0.915125 	 0.731187 	 0.723187 	 0.054000 	  
 12.231208 	 9.112044 	 4.492659 	 0.915875 	 0.729688 	 0.721125 	 0.070187 	  
 6.729226 	 6.873523 	 6.536252 	 0.917563 	 0.731000 	 0.721375 	 0.051188 	  
 6.658486 	 7.690961 	 8.296887 	 0.914875 	 0.730187 	 0.723063 	 0.066000 	  
 10.242635 	 9.489323 	 4.987837 	 0.916188 	 0.729187 	 0.721063 	 0.072563 	  
 16.499175 	 10.432520 	 6.874231 	 0.916750 	 0.729938 	 0.721750 	 0.060562 	  
 18.888607 	 9.112044 	 5.357256 	 0.914938 	 0.728187 	 0.721500 	 0.083312 	  
 12.852146 	 5.892599 	 5.451576 	 0.917000 	 0.729812 	 0.721063 	 0.058563 	  
 5.306571 	 4.609851 	 6.913531 	 0.914500 	 0.727750 	 0.722375 	 0.081000 	  
 1.156504 	 7.225650 	 7.605209 	 0.916813 	 0.727875 	 0.720750 	 0.068687 	  
 -2.789203 	 13.664542 	 11.275817 	 0.915312 	 0.729313 	 0.722187 	 0.062875 	  
 -5.988213 	 18.267343 	 5.931034 	 0.914375 	 0.727250 	 0.722313 	 0.089938 	  
 -4.274738 	 17.085202 	 1.529449 	 0.914687 	 0.727500 	 0.721000 	 0.084000 	  
 2.123281 	 11.300261 	 -7.981121 	 0.914813 	 0.727563 	 0.721187 	 0.079750 	  
 8.851419 	 4.597275 	 -4.412692 	 0.914563 	 0.727625 	 0.722438 	 0.082625 	  
 10.250495 	 1.176614 	 0.601972 	 0.914500 	 0.728875 	 0.722625 	 0.066125 	  
 6.037548 	 -1.024179 	 3.266503 	 0.917125 	 0.729063 	 0.720938 	 0.058688 	  
 1.683123 	 -2.457838 	 1.505869 	 0.917125 	 0.728500 	 0.721125 	 0.061250 	  
 2.052541 	 -0.873267 	 -3.878214 	 0.914813 	 0.730063 	 0.722812 	 0.061562 	  
 5.652410 	 4.006205 	 0.334733 	 0.917125 	 0.728938 	 0.721063 	 0.066875 	  
 10.667073 	 10.042665 	 8.257587 	 0.917375 	 0.729125 	 0.721125 	 0.061875 	  
 14.762120 	 12.042243 	 3.463002 	 0.917687 	 0.729375 	 0.721125 	 0.056250 	  
 14.156902 	 8.609006 	 -3.202256 	 0.917375 	 0.731563 	 0.722375 	 0.048000 	  
 11.751750 	 4.370908 	 -4.687791 	 0.917312 	 0.731875 	 0.722187 	 0.043688 	  
 9.771036 	 0.233417 	 -5.057210 	 0.917687 	 0.731563 	 0.721625 	 0.046312 	  
 8.867139 	 -2.885421 	 -2.298359 	 0.915875 	 0.732313 	 0.723375 	 0.040563 	  
 10.109015 	 -4.847271 	 2.621985 	 0.915750 	 0.730375 	 0.723125 	 0.064750 	  
 12.042569 	 -6.683361 	 4.044641 	 0.915750 	 0.730375 	 0.723125 	 0.064312 	  
 14.235502 	 -4.998182 	 6.811352 	 0.915938 	 0.730812 	 0.722688 	 0.063438 	  
 16.617074 	 1.792836 	 5.152897 	 0.918063 	 0.731313 	 0.721500 	 0.044937 	  
 15.862517 	 7.590353 	 11.794575 	 0.915312 	 0.731688 	 0.723000 	 0.049813 	  
 12.184049 	 7.439442 	 9.114324 	 0.916438 	 0.730625 	 0.721500 	 0.061000 	  
 11.295871 	 7.452018 	 9.468023 	 0.917750 	 0.731938 	 0.722125 	 0.042625 	  
 10.651354 	 8.634158 	 11.818155 	 0.915563 	 0.730000 	 0.722812 	 0.073875 	  
 9.354458 	 8.156271 	 9.719542 	 0.917687 	 0.731313 	 0.721625 	 0.046562 	  
 7.538804 	 9.225228 	 2.056067 	 0.915188 	 0.729688 	 0.723125 	 0.070062 	  
 3.553796 	 11.350565 	 6.669872 	 0.917438 	 0.729313 	 0.721063 	 0.056250 	  
 -0.006772 	 12.809376 	 2.496226 	 0.914938 	 0.730750 	 0.723000 	 0.054813 	  
 -0.258291 	 12.469825 	 3.455142 	 0.915375 	 0.728938 	 0.721313 	 0.074750 	  
 2.924999 	 9.514475 	 3.604482 	 0.917000 	 0.729500 	 0.721125 	 0.061250 	  
 5.817469 	 7.716113 	 9.719542 	 0.914563 	 0.728000 	 0.722750 	 0.081250 	  
 8.945739 	 9.527051 	 7.809568 	 0.916813 	 0.728000 	 0.720812 	 0.063875 	  
 11.877510 	 13.551358 	 9.845302 	 0.914063 	 0.728500 	 0.722500 	 0.062187 	  
 10.808553 	 14.645466 	 7.314390 	 0.914938 	 0.727375 	 0.720688 	 0.086688 	  
 8.277641 	 11.903907 	 5.058577 	 0.916750 	 0.729313 	 0.720875 	 0.065812 	  
 6.972885 	 8.860525 	 5.097877 	 0.914312 	 0.728625 	 0.722562 	 0.072250 	  
 7.358024 	 7.011859 	 0.153953 	 0.914312 	 0.728375 	 0.722500 	 0.069687 	  
 6.776386 	 6.433365 	 0.507652 	 0.916312 	 0.729688 	 0.721688 	 0.055438 	  
 3.373017 	 6.068662 	 3.643782 	 0.917000 	 0.728375 	 0.720938 	 0.061125 	  
 2.901419 	 4.823642 	 6.025354 	 0.916750 	 0.728750 	 0.721063 	 0.059000 	  
 6.124008 	 3.402559 	 7.204350 	 0.914938 	 0.729875 	 0.722625 	 0.061750 	  
 8.639200 	 3.301951 	 4.272580 	 0.915563 	 0.728375 	 0.721063 	 0.083250 	  
 11.500231 	 3.943325 	 4.288300 	 0.916000 	 0.728563 	 0.721063 	 0.073938 	  
 13.213705 	 3.239071 	 5.066437 	 0.916938 	 0.729063 	 0.721063 	 0.069000 	  
 14.211922 	 1.503589 	 4.759898 	 0.916625 	 0.729125 	 0.721125 	 0.073625 	  
 12.168329 	 1.956323 	 7.448009 	 0.917875 	 0.730000 	 0.721375 	 0.050500 	  
 10.486294 	 5.993206 	 1.859568 	 0.917687 	 0.729938 	 0.721375 	 0.058500 	  
 9.739596 	 8.244303 	 0.759171 	 0.917687 	 0.730187 	 0.721500 	 0.051500 	  
 11.492371 	 5.829719 	 -3.744594 	 0.916938 	 0.730688 	 0.721438 	 0.063063 	  
 16.349835 	 3.591198 	 -1.614541 	 0.916063 	 0.730437 	 0.721938 	 0.067937 	  
 18.605648 	 3.151040 	 -1.260842 	 0.916188 	 0.730750 	 0.721562 	 0.070062 	  
 17.096533 	 5.729111 	 -5.340169 	 0.917625 	 0.730688 	 0.721562 	 0.055500 	  
 14.542041 	 8.168847 	 -3.398755 	 0.918000 	 0.732187 	 0.721812 	 0.035375 	  
 10.211195 	 7.955056 	 0.193253 	 0.915312 	 0.730125 	 0.723187 	 0.065062 	  
 8.851419 	 6.546549 	 2.417626 	 0.918000 	 0.730063 	 0.721313 	 0.045500 	  
 11.641710 	 9.275532 	 3.085724 	 0.915375 	 0.731437 	 0.723250 	 0.047375 	  
 13.693164 	 12.545281 	 1.553029 	 0.916125 	 0.729875 	 0.721375 	 0.068312 	  
 12.907166 	 11.589508 	 3.258643 	 0.917563 	 0.731500 	 0.721875 	 0.044187 	  
 10.336955 	 7.200498 	 6.599132 	 0.915125 	 0.729375 	 0.723063 	 0.070688 	  
 9.220838 	 3.339679 	 8.933545 	 0.917438 	 0.729500 	 0.721187 	 0.056813 	  
 6.768526 	 2.861792 	 11.535196 	 0.915188 	 0.730500 	 0.723000 	 0.053312 	  
 4.410534 	 5.138041 	 5.498736 	 0.915500 	 0.728625 	 0.721063 	 0.071875 	  
 4.905712 	 5.779415 	 2.472646 	 0.917000 	 0.729812 	 0.721187 	 0.057375 	  
 8.867139 	 5.414712 	 2.661285 	 0.914750 	 0.728000 	 0.722688 	 0.080750 	  
 10.942173 	 7.753841 	 3.918881 	 0.916938 	 0.728250 	 0.721000 	 0.064062 	  
 9.126518 	 13.425598 	 7.542329 	 0.915250 	 0.728625 	 0.722250 	 0.066062 	  
 6.721366 	 16.104278 	 7.094311 	 0.914438 	 0.727313 	 0.722250 	 0.088938 	  
 6.430547 	 15.425176 	 4.767758 	 0.916625 	 0.728063 	 0.720938 	 0.063938 	  
 6.265488 	 12.935136 	 3.447282 	 0.916625 	 0.728688 	 0.721438 	 0.062125 	  
 6.949305 	 8.973709 	 5.247217 	 0.916250 	 0.728812 	 0.721688 	 0.060250 	  
 8.269781 	 6.735188 	 5.082157 	 0.917125 	 0.728625 	 0.721000 	 0.056750 	  
 8.945739 	 7.565201 	 -1.127223 	 0.915938 	 0.727500 	 0.720625 	 0.085812 	  
 4.229754 	 7.049587 	 -1.087923 	 0.915000 	 0.727875 	 0.721313 	 0.088063 	  
 -2.773483 	 3.100736 	 -4.507012 	 0.914938 	 0.728000 	 0.721688 	 0.077313 	  
 -3.166482 	 -0.018102 	 0.672711 	 0.917188 	 0.729313 	 0.721125 	 0.056250 	  
 2.689199 	 1.729956 	 3.502302 	 0.914813 	 0.729187 	 0.722812 	 0.073313 	  
 8.804259 	 5.100313 	 2.559105 	 0.916750 	 0.729063 	 0.721187 	 0.069562 	  
 9.653137 	 7.125043 	 3.997481 	 0.916938 	 0.729125 	 0.721125 	 0.072375 	  
 7.806043 	 6.735188 	 3.533742 	 0.917438 	 0.729437 	 0.721375 	 0.063563 	  
 7.853203 	 5.917751 	 -3.948954 	 0.917563 	 0.731500 	 0.722125 	 0.042813 	  
 7.059345 	 4.433787 	 -3.013617 	 0.915500 	 0.729750 	 0.723000 	 0.069750 	  
 7.837483 	 2.232995 	 -2.494858 	 0.915875 	 0.731688 	 0.723313 	 0.050750 	  
 12.765687 	 2.962400 	 3.321523 	 0.918250 	 0.731125 	 0.721500 	 0.062000 	  
 17.505251 	 7.338834 	 8.532686 	 0.915813 	 0.730437 	 0.722750 	 0.064625 	  
 16.939333 	 9.149772 	 4.178260 	 0.916438 	 0.730750 	 0.721438 	 0.065625 	  
 13.308025 	 8.634158 	 -0.168306 	 0.918125 	 0.732313 	 0.721625 	 0.036875 	  
 10.549174 	 8.256879 	 6.724892 	 0.915375 	 0.731000 	 0.723187 	 0.059625 	  
 10.989332 	 7.955056 	 7.699529 	 0.917813 	 0.730250 	 0.721500 	 0.049813 	  
 13.048646 	 9.250380 	 6.567692 	 0.915625 	 0.731938 	 0.723125 	 0.050063 	  
 12.553467 	 11.451173 	 8.155407 	 0.915625 	 0.730125 	 0.722375 	 0.068875 	  
 12.388408 	 11.702692 	 10.120401 	 0.917500 	 0.731000 	 0.721375 	 0.046625 	  
 14.856440 	 12.595585 	 9.169344 	 0.915312 	 0.730812 	 0.723000 	 0.062000 	  
 17.002213 	 14.268188 	 5.577336 	 0.917312 	 0.729875 	 0.721250 	 0.066187 	  
 15.996136 	 14.519707 	 4.720598 	 0.915188 	 0.730938 	 0.722938 	 0.054125 	  
 11.665290 	 14.217884 	 5.663795 	 0.915188 	 0.729187 	 0.722375 	 0.072938 	  
 8.937879 	 14.896986 	 5.608775 	 0.917000 	 0.729500 	 0.721250 	 0.056000 	  
 9.236558 	 14.632890 	 6.426213 	 0.914750 	 0.728313 	 0.722625 	 0.076750 	  
 9.951816 	 11.652388 	 6.913531 	 0.917125 	 0.728250 	 0.720938 	 0.062500 	  
 9.841776 	 10.143273 	 5.891735 	 0.914312 	 0.729000 	 0.722625 	 0.075563 	  
 5.086492 	 9.954634 	 4.547679 	 0.915687 	 0.727187 	 0.720688 	 0.083375 	  
 0.504126 	 9.967209 	 3.895301 	 0.916625 	 0.729000 	 0.721625 	 0.057250 	  
 -3.732400 	 9.728266 	 1.804548 	 0.914312 	 0.727875 	 0.722375 	 0.085000 	  
 -4.699177 	 8.998861 	 5.938894 	 0.914375 	 0.727313 	 0.721812 	 0.084750 	  
 0.378367 	 7.841872 	 6.606992 	 0.915250 	 0.727563 	 0.720688 	 0.081750 	  
 8.081142 	 7.426866 	 7.479449 	 0.914563 	 0.727938 	 0.722500 	 0.085000 	  
 14.094022 	 6.798068 	 2.260426 	 0.914500 	 0.729437 	 0.722688 	 0.059688 	  
 16.711394 	 5.892599 	 2.724165 	 0.914625 	 0.729563 	 0.722812 	 0.057938 	  
 15.375198 	 4.345756 	 7.958908 	 0.914938 	 0.728063 	 0.721625 	 0.080000 	  
 8.615620 	 1.415557 	 2.952104 	 0.916250 	 0.728688 	 0.720875 	 0.081562 	  
 2.634179 	 -1.175090 	 -0.459125 	 0.914938 	 0.729187 	 0.723000 	 0.073938 	  
 4.441974 	 -2.344655 	 3.439422 	 0.915125 	 0.729187 	 0.722938 	 0.073750 	  
 11.020772 	 -3.941801 	 2.582685 	 0.917625 	 0.729125 	 0.721125 	 0.055500 	  
 13.190125 	 -5.702436 	 0.727731 	 0.917750 	 0.730625 	 0.721500 	 0.044187 	  
 10.203335 	 -5.300005 	 0.208973 	 0.917875 	 0.730875 	 0.721375 	 0.042063 	  
 6.186888 	 -3.916650 	 4.838498 	 0.915687 	 0.731375 	 0.723125 	 0.049063 	  
 4.591313 	 -1.388882 	 1.891007 	 0.915750 	 0.732313 	 0.723125 	 0.037125 	  
 6.477707 	 0.673576 	 2.904944 	 0.918063 	 0.730875 	 0.721500 	 0.042188 	  
 11.177972 	 -0.244469 	 5.074297 	 0.916312 	 0.730563 	 0.721562 	 0.065187 	  
 14.400561 	 -1.162514 	 7.070731 	 0.916875 	 0.730750 	 0.721562 	 0.062375 	  
 13.873943 	 3.540894 	 5.695235 	 0.918063 	 0.732125 	 0.721938 	 0.036562 	  
 7.672423 	 9.162348 	 7.919608 	 0.915312 	 0.729750 	 0.723000 	 0.071000 	  
 2.807099 	 9.904330 	 -0.286205 	 0.917813 	 0.731437 	 0.721625 	 0.039938 	  
 5.510930 	 7.879600 	 1.427269 	 0.915625 	 0.731625 	 0.723187 	 0.048125 	  
 10.219055 	 5.276377 	 -0.632044 	 0.916063 	 0.730063 	 0.721375 	 0.073438 	  
 11.940389 	 4.785914 	 4.437639 	 0.917625 	 0.731500 	 0.721688 	 0.046875 	  
 10.179755 	 7.816720 	 0.617692 	 0.915563 	 0.729500 	 0.722938 	 0.075375 	  
 6.218328 	 9.816298 	 0.609832 	 0.917500 	 0.730187 	 0.721438 	 0.054062 	  
 1.942502 	 9.703114 	 2.284006 	 0.915063 	 0.730063 	 0.723063 	 0.066250 	  
 -1.382268 	 8.005360 	 7.314390 	 0.916125 	 0.729000 	 0.721063 	 0.072188 	  
 0.299767 	 9.212652 	 9.287244 	 0.916813 	 0.729750 	 0.721812 	 0.056875 	  
 5.558090 	 13.576510 	 10.906398 	 0.914813 	 0.728250 	 0.721938 	 0.083125 	  
 10.887153 	 16.909139 	 7.102171 	 0.916750 	 0.729187 	 0.721063 	 0.063875 	  
 10.360534 	 18.682349 	 5.915314 	 0.914188 	 0.727875 	 0.722500 	 0.081875 	  
 4.583453 	 17.060051 	 1.222910 	 0.916750 	 0.727688 	 0.720688 	 0.071938 	  
 0.166147 	 13.010592 	 -4.365532 	 0.916125 	 0.729313 	 0.721750 	 0.063688 	  
 -1.515887 	 9.124620 	 -3.430195 	 0.914312 	 0.728563 	 0.722562 	 0.076000 	  
 2.681339 	 7.099891 	 -2.824977 	 0.914563 	 0.729437 	 0.722438 	 0.067500 	  
 9.810336 	 6.483669 	 -6.126167 	 0.917000 	 0.730063 	 0.721375 	 0.058688 	  
 12.411988 	 6.760340 	 -2.958597 	 0.916813 	 0.729750 	 0.721250 	 0.054562 	  
 11.083652 	 6.974131 	 -1.268702 	 0.917000 	 0.728750 	 0.720875 	 0.058875 	  
 11.162252 	 8.131119 	 4.500519 	 0.917312 	 0.728938 	 0.721125 	 0.063438 	  
 15.021499 	 11.438597 	 2.645565 	 0.915312 	 0.730313 	 0.722688 	 0.056813 	  
 17.379492 	 13.010592 	 2.087507 	 0.915563 	 0.728938 	 0.721063 	 0.076500 	  
 17.261592 	 10.834951 	 1.387969 	 0.917375 	 0.731125 	 0.721750 	 0.053875 	  
 16.750694 	 6.735188 	 1.639488 	 0.917375 	 0.731313 	 0.721500 	 0.051688 	  
 18.204789 	 5.553048 	 2.881364 	 0.916375 	 0.730250 	 0.721438 	 0.069875 	  
 22.716414 	 7.439442 	 6.772052 	 0.915500 	 0.731875 	 0.723250 	 0.047188 	  
 24.618528 	 9.464171 	 4.885658 	 0.915563 	 0.732000 	 0.723187 	 0.047375 	  
 22.629955 	 9.313260 	 1.600188 	 0.916687 	 0.730812 	 0.721500 	 0.064375 	  
 20.374142 	 8.659310 	 3.667362 	 0.917188 	 0.730875 	 0.721625 	 0.062000 	  
 18.566348 	 5.691383 	 7.007851 	 0.916063 	 0.730812 	 0.723063 	 0.066562 	  
 17.874670 	 3.100736 	 1.993187 	 0.916000 	 0.730875 	 0.723313 	 0.065250 	  
 17.670311 	 4.383484 	 -0.522005 	 0.918125 	 0.731688 	 0.721750 	 0.039375 	  
 17.725331 	 7.426866 	 3.698802 	 0.915625 	 0.731938 	 0.723125 	 0.045812 	  
 14.392701 	 8.885677 	 -1.032903 	 0.916687 	 0.730375 	 0.721562 	 0.065625 	  
 11.075792 	 8.294607 	 2.488366 	 0.917813 	 0.732000 	 0.722250 	 0.043625 	  
 8.529160 	 6.118966 	 8.202567 	 0.915563 	 0.730375 	 0.723125 	 0.069500 	  
 6.713506 	 3.012704 	 15.740283 	 0.917875 	 0.730750 	 0.721500 	 0.048188 	  
 6.949305 	 3.628926 	 11.126478 	 0.915188 	 0.731500 	 0.723187 	 0.050625 	  
 6.289068 	 7.753841 	 6.064654 	 0.915625 	 0.729500 	 0.721250 	 0.075063 	  
 3.310137 	 12.105123 	 6.944971 	 0.917500 	 0.731063 	 0.721500 	 0.054437 	  
 0.433387 	 15.915638 	 15.551643 	 0.915188 	 0.729187 	 0.723063 	 0.071063 	  
 -3.048582 	 16.393525 	 10.945698 	 0.917375 	 0.728938 	 0.721063 	 0.067125 	  
 -3.190062 	 14.406523 	 11.315117 	 0.915625 	 0.729938 	 0.722500 	 0.058500 	  
 -0.274011 	 13.425598 	 7.888168 	 0.915125 	 0.728375 	 0.721250 	 0.082875 	  
 3.176518 	 13.526206 	 9.004284 	 0.916813 	 0.729437 	 0.721187 	 0.067062 	  
 2.516280 	 13.739997 	 6.017494 	 0.914625 	 0.727875 	 0.722438 	 0.082625 	  
 0.873545 	 12.784224 	 4.697018 	 0.916375 	 0.727688 	 0.720688 	 0.083312 	  
 -2.411924 	 9.703114 	 -2.958597 	 0.916625 	 0.729063 	 0.721562 	 0.061250 	  
 -4.824936 	 4.748186 	 -7.682442 	 0.914875 	 0.729187 	 0.722313 	 0.063563 	  
 -1.044289 	 -0.370229 	 0.452632 	 0.917438 	 0.729000 	 0.721000 	 0.054500 	  
 3.545937 	 -3.715434 	 1.553029 	 0.914750 	 0.727688 	 0.722500 	 0.085500 	  
 4.025395 	 -4.080137 	 1.867428 	 0.915000 	 0.729500 	 0.722125 	 0.059625 	  
 3.192238 	 -2.156015 	 0.051773 	 0.916687 	 0.729938 	 0.722000 	 0.057438 	  
 2.594880 	 -1.678129 	 0.971390 	 0.914938 	 0.728625 	 0.721812 	 0.076563 	  
 0.802805 	 -2.621326 	 1.081430 	 0.917375 	 0.730375 	 0.721375 	 0.052250 	  
 0.142568 	 -2.382383 	 2.700585 	 0.917625 	 0.731063 	 0.721625 	 0.051375 	  
 3.883915 	 -1.489489 	 2.566965 	 0.917438 	 0.729375 	 0.721375 	 0.070563 	  
 8.301221 	 0.283721 	 3.502302 	 0.915438 	 0.729625 	 0.723187 	 0.068062 	  
 9.370178 	 2.119811 	 -2.408399 	 0.917687 	 0.731812 	 0.722063 	 0.046500 	  
 8.489861 	 3.113312 	 0.067493 	 0.917312 	 0.731812 	 0.722500 	 0.039000 	  
 6.658486 	 1.063430 	 0.036053 	 0.918063 	 0.732500 	 0.722000 	 0.037812 	  
 8.694220 	 -2.671630 	 0.829911 	 0.917188 	 0.731313 	 0.721562 	 0.062563 	  
 17.670311 	 -4.847271 	 2.056067 	 0.915750 	 0.730688 	 0.723313 	 0.066625 	  
 25.663905 	 -5.199397 	 -0.490565 	 0.916188 	 0.731000 	 0.722750 	 0.063875 	  
 27.338079 	 -3.463915 	 1.749528 	 0.918250 	 0.731500 	 0.721812 	 0.052937 	  
 21.930417 	 0.422056 	 1.859568 	 0.917938 	 0.732437 	 0.722063 	 0.046562 	  
 15.548118 	 4.798490 	 4.225420 	 0.915687 	 0.730437 	 0.723063 	 0.068687 	  
 15.107959 	 8.206575 	 3.738102 	 0.917938 	 0.732125 	 0.721688 	 0.044625 	  
 15.603137 	 10.646311 	 6.426213 	 0.915563 	 0.731250 	 0.723250 	 0.062688 	  
 14.730680 	 10.646311 	 5.082157 	 0.918000 	 0.730375 	 0.721438 	 0.056438 	  
 15.438078 	 11.237381 	 5.262937 	 0.915500 	 0.731563 	 0.723438 	 0.046625 	  
 16.821434 	 12.972864 	 6.489093 	 0.916063 	 0.729812 	 0.721187 	 0.071563 	  
 17.293032 	 15.890486 	 8.682025 	 0.917750 	 0.731125 	 0.721438 	 0.054437 	  
 14.015423 	 18.078703 	 6.591272 	 0.915125 	 0.730250 	 0.723187 	 0.071313 	  
 6.980745 	 16.946867 	 7.990348 	 0.916125 	 0.729250 	 0.721063 	 0.081687 	  
 3.325857 	 13.186655 	 11.896755 	 0.917063 	 0.730313 	 0.721875 	 0.055063 	  
 4.842832 	 8.596430 	 7.542329 	 0.914875 	 0.728750 	 0.722938 	 0.084375 	  
 6.375527 	 4.886522 	 6.646292 	 0.916875 	 0.728063 	 0.720875 	 0.066500 	  
 6.202608 	 4.911674 	 6.064654 	 0.915188 	 0.729688 	 0.722375 	 0.061250 	  
 4.559873 	 8.269455 	 12.509833 	 0.914625 	 0.728063 	 0.722625 	 0.088125 	  
 4.253334 	 12.268610 	 6.874231 	 0.917063 	 0.728187 	 0.720812 	 0.071000 	  
 3.459477 	 12.444673 	 9.232224 	 0.916938 	 0.729875 	 0.721250 	 0.059938 	  
 4.850692 	 10.495400 	 8.186847 	 0.917063 	 0.729563 	 0.720875 	 0.059125 	  
 8.277641 	 7.326258 	 8.430506 	 0.917125 	 0.728500 	 0.721000 	 0.079438 	  
 10.415554 	 5.565624 	 3.565182 	 0.917188 	 0.729063 	 0.720938 	 0.059938 	  
 9.456637 	 7.162771 	 4.539819 	 0.915563 	 0.730187 	 0.722625 	 0.061437 	  
 8.316941 	 8.722190 	 2.394046 	 0.915000 	 0.728750 	 0.722375 	 0.080250 	  
 7.287284 	 6.961555 	 -1.048623 	 0.915312 	 0.729063 	 0.722625 	 0.075375 	  
 8.033982 	 4.748186 	 -2.314079 	 0.915438 	 0.729750 	 0.722438 	 0.073125 	  
 12.451288 	 5.150617 	 3.722382 	 0.917875 	 0.730563 	 0.721187 	 0.056313 	  
 17.961130 	 8.030512 	 1.380109 	 0.915188 	 0.731625 	 0.723187 	 0.063750 	  
 17.552411 	 9.615083 	 0.460492 	 0.916687 	 0.730750 	 0.721500 	 0.067937 	  
 13.127245 	 9.338412 	 1.183610 	 0.916188 	 0.730563 	 0.722187 	 0.067937 	  
 11.759610 	 8.307183 	 1.647348 	 0.917750 	 0.732063 	 0.721625 	 0.043688 	  
 12.136889 	 6.886099 	 -2.329799 	 0.918687 	 0.731500 	 0.721562 	 0.044250 	  
 13.866083 	 3.566046 	 -1.300142 	 0.918125 	 0.732812 	 0.721938 	 0.041375 	  
 13.653864 	 -0.445685 	 0.994970 	 0.918063 	 0.732938 	 0.721938 	 0.041313 	  
 12.655647 	 -0.131286 	 0.350452 	 0.918500 	 0.732250 	 0.721750 	 0.034500 	  
 13.661724 	 3.943325 	 3.635922 	 0.918063 	 0.733000 	 0.722500 	 0.036875 	  
 11.861790 	 6.911251 	 12.871392 	 0.915625 	 0.730375 	 0.722562 	 0.071438 	  
 8.977179 	 8.231727 	 1.765248 	 0.918188 	 0.732750 	 0.721812 	 0.041438 	  
 5.628830 	 11.677540 	 1.670928 	 0.915625 	 0.730563 	 0.723375 	 0.066250 	  
 4.803532 	 12.293762 	 5.372976 	 0.918063 	 0.730875 	 0.721500 	 0.047938 	  
 6.792106 	 8.810221 	 6.025354 	 0.915750 	 0.731875 	 0.723187 	 0.049438 	  
 9.330878 	 7.917328 	 6.402633 	 0.915750 	 0.730000 	 0.721938 	 0.070375 	  
 9.385898 	 11.438597 	 7.487309 	 0.917750 	 0.730625 	 0.721313 	 0.052375 	  
 6.406967 	 15.123353 	 7.856728 	 0.915500 	 0.731000 	 0.723063 	 0.062938 	  
 3.247257 	 14.808954 	 5.082157 	 0.916500 	 0.729000 	 0.721313 	 0.071813 	  
 1.879622 	 13.111199 	 3.651642 	 0.916188 	 0.730500 	 0.722187 	 0.059500 	  
 1.022885 	 9.791146 	 7.259370 	 0.915125 	 0.728437 	 0.722438 	 0.085000 	  
 5.094352 	 6.118966 	 5.475156 	 0.917000 	 0.729250 	 0.721187 	 0.066875 	  
 8.615620 	 4.861370 	 7.455869 	 0.914563 	 0.729437 	 0.722688 	 0.067062 	  
 7.004325 	 6.307605 	 5.129317 	 0.915375 	 0.728063 	 0.720938 	 0.088063 	  
 4.182594 	 9.011437 	 4.091800 	 0.916750 	 0.729437 	 0.721187 	 0.059125 	  
 0.818525 	 9.828874 	 3.620202 	 0.916063 	 0.729187 	 0.721875 	 0.061500 	  
 -1.067869 	 9.250380 	 1.513729 	 0.917125 	 0.729375 	 0.721375 	 0.062375 	  
 -0.218991 	 9.036588 	 1.435129 	 0.917125 	 0.728750 	 0.721063 	 0.076500 	  
 2.689199 	 8.370063 	 1.199330 	 0.916375 	 0.728125 	 0.721000 	 0.079625 	  
 5.731009 	 5.590776 	 -0.011106 	 0.917063 	 0.729750 	 0.721313 	 0.058313 	  
 6.917866 	 4.396060 	 0.586252 	 0.914938 	 0.729875 	 0.722812 	 0.072188 	  
 6.910006 	 6.219574 	 0.609832 	 0.916563 	 0.728875 	 0.721063 	 0.075250 	  
 4.528433 	 8.445518 	 -2.982177 	 0.917500 	 0.730938 	 0.721938 	 0.052437 	  
 2.862119 	 8.219151 	 -1.866060 	 0.917687 	 0.731375 	 0.721688 	 0.050625 	  
 6.493427 	 6.659732 	 0.452632 	 0.916875 	 0.729688 	 0.721187 	 0.072313 	  
 10.808553 	 6.030934 	 -0.836404 	 0.917063 	 0.730125 	 0.721625 	 0.064562 	  
 14.432001 	 7.263378 	 -1.842480 	 0.917375 	 0.730563 	 0.721438 	 0.067875 	  
 14.455581 	 7.187922 	 1.828128 	 0.915687 	 0.731938 	 0.723313 	 0.053187 	  
 12.718527 	 4.597275 	 -0.121146 	 0.918312 	 0.731187 	 0.721812 	 0.058563 	  
 12.443428 	 3.176191 	 2.629845 	 0.916500 	 0.731063 	 0.721625 	 0.065187 	  
 14.392701 	 2.471938 	 4.893518 	 0.917750 	 0.731000 	 0.721500 	 0.067437 	  
 19.454525 	 0.962823 	 3.981761 	 0.918188 	 0.732000 	 0.721875 	 0.035750 	  
 23.777511 	 0.321449 	 2.394046 	 0.915938 	 0.732563 	 0.723438 	 0.043875 	  
 23.730351 	 0.296297 	 7.031431 	 0.916938 	 0.730500 	 0.721438 	 0.073063 	  
 19.556705 	 0.761607 	 4.657719 	 0.917438 	 0.732125 	 0.722562 	 0.039563 	  
 15.296598 	 3.188767 	 2.236846 	 0.915938 	 0.730313 	 0.722938 	 0.066187 	  
 9.983256 	 3.968477 	 2.559105 	 0.917875 	 0.730938 	 0.721625 	 0.047563 	  
 5.157231 	 3.654078 	 4.862078 	 0.915563 	 0.731750 	 0.723250 	 0.052687 	  
 5.479490 	 4.119388 	 4.461219 	 0.916625 	 0.730063 	 0.721375 	 0.073000 	  
 10.871433 	 5.741687 	 4.736318 	 0.917563 	 0.731125 	 0.722125 	 0.051813 	  
 12.459148 	 6.571700 	 6.764192 	 0.915375 	 0.729375 	 0.723000 	 0.068687 	  
 10.871433 	 6.923827 	 5.207917 	 0.917750 	 0.729625 	 0.721187 	 0.054875 	  
 6.037548 	 7.288530 	 4.374759 	 0.914875 	 0.730063 	 0.723000 	 0.063563 	  
 2.036821 	 7.112467 	 3.596622 	 0.915375 	 0.728437 	 0.721125 	 0.083312 	  
 4.041115 	 6.068662 	 2.920664 	 0.917250 	 0.730125 	 0.721438 	 0.061687 	  
 9.040059 	 6.118966 	 4.697018 	 0.914438 	 0.727563 	 0.722750 	 0.086125 	  
 10.242635 	 7.514897 	 4.641999 	 0.917125 	 0.728125 	 0.720875 	 0.059500 	  
 5.589530 	 8.445518 	 3.730242 	 0.915188 	 0.729500 	 0.722500 	 0.063188 	  
 0.260467 	 7.690961 	 6.001774 	 0.914500 	 0.728063 	 0.722688 	 0.084250 	  
 -0.336891 	 7.137619 	 3.643782 	 0.915125 	 0.728000 	 0.722500 	 0.087250 	  
 4.394814 	 8.483246 	 6.834931 	 0.915188 	 0.728812 	 0.722875 	 0.079625 	  
 9.480217 	 9.640235 	 3.549462 	 0.914750 	 0.728063 	 0.722562 	 0.085312 	  
 9.943956 	 9.929482 	 5.616635 	 0.915000 	 0.729750 	 0.722750 	 0.060375 	  
 9.920376 	 10.860103 	 2.307586 	 0.915000 	 0.730000 	 0.722875 	 0.064250 	  
 7.923942 	 13.035744 	 4.437639 	 0.915125 	 0.730375 	 0.722938 	 0.059625 	  
 3.522357 	 12.658465 	 1.741668 	 0.915250 	 0.729500 	 0.723000 	 0.076063 	  
 0.739926 	 9.137196 	 -0.262626 	 0.917438 	 0.729375 	 0.721375 	 0.059000 	  
 4.001815 	 5.087737 	 -0.451265 	 0.916375 	 0.731063 	 0.722625 	 0.048563 	  
 9.841776 	 2.635425 	 6.151114 	 0.915625 	 0.731563 	 0.723063 	 0.053062 	  
 12.852146 	 2.471938 	 3.140743 	 0.918125 	 0.730625 	 0.721562 	 0.052875 	  
 14.392701 	 3.289375 	 4.225420 	 0.915750 	 0.731063 	 0.723187 	 0.054813 	  
 16.082596 	 2.924672 	 1.498009 	 0.918312 	 0.731187 	 0.721750 	 0.039875 	  
 16.884313 	 5.553048 	 3.203623 	 0.916125 	 0.731250 	 0.723375 	 0.060562 	  
 15.186559 	 8.080816 	 0.625552 	 0.916188 	 0.731437 	 0.723250 	 0.059063 	  
 12.702807 	 6.860948 	 1.356529 	 0.916063 	 0.731125 	 0.723500 	 0.064937 	  
 13.858223 	 5.942903 	 3.934601 	 0.916125 	 0.731125 	 0.722375 	 0.063188 	  
 13.983983 	 7.602929 	 5.624495 	 0.918188 	 0.732063 	 0.721375 	 0.046312 	  
 11.185832 	 9.527051 	 4.783478 	 0.915625 	 0.729938 	 0.723375 	 0.066687 	  
 11.115092 	 10.596007 	 2.504085 	 0.918125 	 0.731000 	 0.721562 	 0.043750 	  
 13.708884 	 11.715268 	 3.085724 	 0.916000 	 0.731750 	 0.723250 	 0.050500 	  
 12.781407 	 10.809799 	 8.540546 	 0.916312 	 0.729938 	 0.721375 	 0.073125 	  
 13.818923 	 8.508398 	 7.377270 	 0.917938 	 0.731500 	 0.721938 	 0.048375 	  
 14.321962 	 8.797645 	 6.764192 	 0.915563 	 0.729563 	 0.723063 	 0.074000 	  
 10.274075 	 9.954634 	 1.301509 	 0.917687 	 0.729938 	 0.721500 	 0.051063 	  
 3.035038 	 11.853603 	 3.219343 	 0.915438 	 0.730688 	 0.723000 	 0.060625 	  
 -0.729890 	 13.324991 	 5.074297 	 0.916000 	 0.728313 	 0.721063 	 0.083750 	  
 -0.069652 	 14.192732 	 12.855672 	 0.917188 	 0.729938 	 0.721938 	 0.058438 	  
 1.439463 	 14.683194 	 8.666306 	 0.915063 	 0.728187 	 0.722562 	 0.080875 	  
 3.530217 	 12.922560 	 4.531959 	 0.916938 	 0.729000 	 0.721000 	 0.062563 	  
 5.267271 	 11.488901 	 4.586979 	 0.914625 	 0.728250 	 0.722750 	 0.078188 	  
 8.914299 	 10.910406 	 13.688829 	 0.916813 	 0.727812 	 0.720625 	 0.081187 	  
 12.836426 	 9.879178 	 10.018221 	 0.916750 	 0.729437 	 0.721812 	 0.061500 	  
 12.569187 	 5.842295 	 5.876015 	 0.914687 	 0.729125 	 0.722688 	 0.068250 	  
 10.274075 	 2.559969 	 1.733808 	 0.915000 	 0.729625 	 0.722750 	 0.069937 	  
 7.955382 	 0.484936 	 1.089290 	 0.915250 	 0.729625 	 0.722187 	 0.062062 	  
 7.200825 	 -0.672052 	 0.837771 	 0.915813 	 0.729812 	 0.722375 	 0.059563 	  
 6.281208 	 0.497512 	 6.473373 	 0.915125 	 0.728375 	 0.722750 	 0.080312 	  
 4.575593 	 3.641502 	 3.863861 	 0.915188 	 0.728437 	 0.722812 	 0.078500 	  
 3.317997 	 6.886099 	 -3.524515 	 0.915125 	 0.728625 	 0.723000 	 0.076500 	  
 3.027178 	 7.401714 	 -3.752454 	 0.917938 	 0.729500 	 0.721187 	 0.056438 	  
 2.186161 	 4.584699 	 -1.095783 	 0.915250 	 0.730875 	 0.723187 	 0.056313 	  
 3.608816 	 0.635848 	 -11.274450 	 0.916063 	 0.729500 	 0.721125 	 0.069437 	  
 9.543097 	 -0.433109 	 -10.189773 	 0.916438 	 0.730187 	 0.721625 	 0.067062 	  
 14.321962 	 1.038278 	 -2.604898 	 0.915875 	 0.731812 	 0.722938 	 0.042875 	  
 14.982199 	 2.069507 	 -4.326232 	 0.918125 	 0.731688 	 0.721938 	 0.039438 	  
