[MyosystemBr1 Versão 3.5.61]
[Informações gerais]
	[Descrição geral] = 
	[Número de amostras por canal] = 50001.000000
	[Duração] = 25.000000 seg
	[Taxa de amostragem por canal] = 2000 Hz
	[Número de canais]  = 6
	[Canais utilizados] = 2	3	4	9	10	11	
[Informações sobre canais]
	[canal 1]
		Tipo de eletrodo = Passivo
		Descrição = 
		Unidade = uV
		Freqüência = 2000
		Filtro passa alta = 20.000000 Hz
		Filtro passa baixa = 500.000000 Hz
		Ganho do eletrodo = 20.000000
		Ganho do eletromiógrafo = 397.584015
		Tempo = 25.000000
	[canal 2]
		Tipo de eletrodo = Ativo
		Descrição = 
		Unidade = uV
		Freqüência = 2000
		Filtro passa alta = 20.000000 Hz
		Filtro passa baixa = 500.000000 Hz
		Ganho do eletrodo = 20.000000
		Ganho do eletromiógrafo = 397.583984
		Tempo = 25.000000
	[canal 3]
		Tipo de eletrodo = Ativo
		Descrição = 
		Unidade = uV
		Freqüência = 2000
		Filtro passa alta = 20.000000 Hz
		Filtro passa baixa = 500.000000 Hz
		Ganho do eletrodo = 20.000000
		Ganho do eletromiógrafo = 248.489990
		Tempo = 25.000000
	[canal 4]
		Tipo de eletrodo = Ativo
		Descrição = 
		Unidade = uV
		Freqüência = 2000
		Filtro passa alta = 20.000000 Hz
		Filtro passa baixa = 500.000000 Hz
		Ganho do eletrodo = 20.000000
		Ganho do eletromiógrafo = 397.583984
		Tempo = 25.000000
	[canal 5]
		Tipo de eletrodo = Passivo
		Descrição = 
		Unidade = uV
		Freqüência = 2000
		Filtro passa alta = 20.000000 Hz
		Filtro passa baixa = 1000.000000 Hz
		Ganho do eletrodo = 20.000000
		Ganho do eletromiógrafo = 397.584015
		Tempo = 25.000000
	[canal 6]
		Tipo de eletrodo = Passivo
		Descrição = 
		Unidade = uV
		Freqüência = 2000
		Filtro passa alta = 20.000000 Hz
		Filtro passa baixa = 1000.000000 Hz
		Ganho do eletrodo = 20.000000
		Ganho do eletromiógrafo = 397.584015
		Tempo = 25.000000
	[canal 7]
		Tipo de eletrodo = Passivo
		Descrição = 
		Unidade = uV
		Freqüência = 2000
		Filtro passa alta = 20.000000 Hz
		Filtro passa baixa = 1000.000000 Hz
		Ganho do eletrodo = 20.000000
		Ganho do eletromiógrafo = 397.584015
		Tempo = 25.000000
	[canal 8]
		Tipo de eletrodo = Passivo
		Descrição = 
		Unidade = uV
		Freqüência = 2000
		Filtro passa alta = 20.000000 Hz
		Filtro passa baixa = 1000.000000 Hz
		Ganho do eletrodo = 20.000000
		Ganho do eletromiógrafo = 397.584015
		Tempo = 25.000000
	[canal 9]
		Fonte de sinal auxiliar = Entrada em volts
		Descrição = 
		Unidade = V
		Freqüência = 2000
		Filtro passa alta = 0.000000 Hz
		Filtro passa baixa = 100000.000000 Hz
		Ganho do eletrodo = 1.000000
		Ganho do eletromiógrafo = 1.000000
		Tempo = 25.000000
	[canal 10]
		Fonte de sinal auxiliar = Entrada em volts
		Descrição = 
		Unidade = V
		Freqüência = 2000
		Filtro passa alta = 0.000000 Hz
		Filtro passa baixa = 100000.000000 Hz
		Ganho do eletrodo = 1.000000
		Ganho do eletromiógrafo = 1.000000
		Tempo = 25.000000
	[canal 11]
		Fonte de sinal auxiliar = Entrada em volts
		Descrição = 
		Unidade = V
		Freqüência = 2000
		Filtro passa alta = 0.000000 Hz
		Filtro passa baixa = 100000.000000 Hz
		Ganho do eletrodo = 1.000000
		Ganho do eletromiógrafo = 1.000000
		Tempo = 25.000000
	[canal 12]
		Fonte de sinal auxiliar = Entrada em volts
		Descrição = 
		Unidade = V
		Freqüência = 2000
		Filtro passa alta = 0.000000 Hz
		Filtro passa baixa = 100000.000000 Hz
		Ganho do eletrodo = 1.000000
		Ganho do eletromiógrafo = 1.000000
		Tempo = 25.000000
[Dados]
10.572754 	 6.684884 	 12.604153 	 0.828750 	 0.709063 	 0.686188 	  
 11.303731 	 7.225650 	 8.422646 	 0.825750 	 0.707313 	 0.687500 	  
 19.454525 	 8.810221 	 9.067164 	 0.828562 	 0.709375 	 0.686125 	  
 28.603535 	 11.224805 	 2.991404 	 0.824375 	 0.707500 	 0.687750 	  
 29.538872 	 10.897830 	 6.017494 	 0.826937 	 0.709438 	 0.686250 	  
 26.127643 	 9.690538 	 8.564126 	 0.823562 	 0.707438 	 0.686750 	  
 22.449175 	 10.281608 	 6.536252 	 0.826562 	 0.709500 	 0.687188 	  
 19.085106 	 12.318914 	 4.115380 	 0.826000 	 0.707313 	 0.685875 	  
 20.979360 	 11.740420 	 2.653425 	 0.825750 	 0.709125 	 0.687875 	  
 22.457035 	 10.470248 	 -2.840697 	 0.825937 	 0.707375 	 0.685875 	  
 22.079757 	 9.501899 	 -1.347302 	 0.823188 	 0.708875 	 0.687813 	  
 19.682464 	 10.193577 	 -0.223326 	 0.823813 	 0.706937 	 0.686000 	  
 17.293032 	 12.583009 	 6.190414 	 0.821313 	 0.708875 	 0.687937 	  
 12.938606 	 13.614238 	 7.086451 	 0.826250 	 0.707438 	 0.685937 	  
 9.071499 	 13.350143 	 5.805275 	 0.823375 	 0.708438 	 0.688000 	  
 7.593823 	 13.274687 	 4.280440 	 0.827000 	 0.707438 	 0.685875 	  
 11.500231 	 12.972864 	 5.003557 	 0.824250 	 0.709125 	 0.687813 	  
 15.603137 	 12.419522 	 2.331166 	 0.826562 	 0.707688 	 0.686000 	  
 13.866083 	 13.136351 	 1.545169 	 0.823937 	 0.707375 	 0.687937 	  
 4.850692 	 13.287263 	 2.653425 	 0.827375 	 0.708187 	 0.685937 	  
 -4.699177 	 11.740420 	 0.405472 	 0.824750 	 0.707125 	 0.687937 	  
 -6.609151 	 9.124620 	 -1.583101 	 0.825500 	 0.709250 	 0.686250 	  
 -2.262585 	 7.615505 	 -3.241556 	 0.823375 	 0.706750 	 0.687500 	  
 0.346927 	 6.433365 	 -1.873920 	 0.825438 	 0.708688 	 0.686312 	  
 -2.144685 	 7.187922 	 -1.645981 	 0.822688 	 0.706813 	 0.687000 	  
 -6.389071 	 7.854448 	 0.193253 	 0.825438 	 0.709063 	 0.686500 	  
 -12.079693 	 7.716113 	 3.368683 	 0.823125 	 0.706813 	 0.686250 	  
 -16.457699 	 7.426866 	 3.125023 	 0.825750 	 0.708875 	 0.686750 	  
 -14.170446 	 7.867024 	 3.368683 	 0.824625 	 0.707063 	 0.685813 	  
 -5.406575 	 8.533550 	 5.286516 	 0.824937 	 0.709000 	 0.687500 	  
 0.331207 	 7.942480 	 2.504085 	 0.824500 	 0.707187 	 0.686000 	  
 1.321564 	 7.024435 	 2.244706 	 0.824875 	 0.709187 	 0.687625 	  
 -2.616284 	 6.923827 	 2.708445 	 0.823438 	 0.707125 	 0.685813 	  
 -7.292968 	 5.641079 	 2.087507 	 0.824250 	 0.709438 	 0.687813 	  
 -7.740987 	 4.081661 	 2.103227 	 0.825500 	 0.707500 	 0.685937 	  
 -0.737750 	 4.144540 	 -0.663484 	 0.830000 	 0.709313 	 0.686688 	  
 6.289068 	 5.012282 	 -0.404105 	 0.827125 	 0.707250 	 0.686750 	  
 8.458421 	 4.471515 	 -0.907143 	 0.830313 	 0.709500 	 0.686500 	  
 5.503070 	 4.534395 	 0.625552 	 0.827562 	 0.707375 	 0.686875 	  
 2.909279 	 3.981053 	 1.254350 	 0.830313 	 0.709375 	 0.686625 	  
 3.042898 	 3.377407 	 2.999264 	 0.828375 	 0.707500 	 0.686562 	  
 6.572027 	 2.849217 	 2.213266 	 0.831688 	 0.709187 	 0.686688 	  
 12.333388 	 2.471938 	 2.189687 	 0.829063 	 0.707187 	 0.686125 	  
 18.833587 	 1.755108 	 3.824561 	 0.830875 	 0.708813 	 0.687250 	  
 18.802147 	 1.478437 	 6.190414 	 0.828750 	 0.706562 	 0.686000 	  
 15.068659 	 1.817988 	 8.666306 	 0.828688 	 0.709125 	 0.687937 	  
 10.517734 	 4.584699 	 8.344047 	 0.829063 	 0.707125 	 0.685937 	  
 7.798183 	 8.935981 	 8.312607 	 0.828000 	 0.708750 	 0.687875 	  
 7.200825 	 10.319336 	 9.703822 	 0.831000 	 0.707000 	 0.686000 	  
 10.321235 	 10.331912 	 8.312607 	 0.827937 	 0.708750 	 0.687875 	  
 13.315885 	 8.810221 	 6.520532 	 0.831313 	 0.707500 	 0.685875 	  
 14.604921 	 7.263378 	 5.302236 	 0.828063 	 0.707000 	 0.687937 	  
 13.763903 	 6.911251 	 1.057850 	 0.830750 	 0.708063 	 0.686125 	  
 9.574537 	 8.080816 	 -3.414475 	 0.827250 	 0.706813 	 0.687875 	  
 6.226188 	 7.816720 	 -1.779601 	 0.830000 	 0.708313 	 0.686063 	  
 9.236558 	 6.823220 	 2.920664 	 0.826625 	 0.706562 	 0.687875 	  
 15.367338 	 5.854871 	 5.310096 	 0.829375 	 0.708562 	 0.686250 	  
 17.151552 	 5.980630 	 5.671655 	 0.825937 	 0.706375 	 0.686750 	  
 16.412715 	 5.779415 	 4.068220 	 0.828000 	 0.708375 	 0.686750 	  
 13.889663 	 4.936826 	 2.504085 	 0.825813 	 0.706500 	 0.686000 	  
 9.032199 	 3.767262 	 0.460492 	 0.828875 	 0.708250 	 0.687125 	  
 3.789596 	 3.855293 	 3.926741 	 0.826688 	 0.706250 	 0.685937 	  
 6.603467 	 4.446363 	 4.972118 	 0.827500 	 0.708313 	 0.687813 	  
 14.109742 	 4.446363 	 4.775618 	 0.827250 	 0.706187 	 0.685688 	  
 17.072953 	 3.176191 	 4.414059 	 0.826500 	 0.708063 	 0.687937 	  
 13.512384 	 1.729956 	 -0.301925 	 0.827063 	 0.706375 	 0.685937 	  
 8.277641 	 1.503589 	 0.586252 	 0.828375 	 0.708438 	 0.687562 	  
 4.724933 	 2.899520 	 1.647348 	 0.826750 	 0.706562 	 0.686000 	  
 7.075065 	 4.270300 	 2.975684 	 0.829375 	 0.708750 	 0.686813 	  
 12.883586 	 4.131964 	 5.239357 	 0.826688 	 0.706688 	 0.687000 	  
 17.387352 	 3.591198 	 5.663795 	 0.829250 	 0.708562 	 0.686562 	  
 17.442372 	 4.094236 	 3.062144 	 0.826562 	 0.706875 	 0.687250 	  
 16.137616 	 4.823642 	 5.215777 	 0.829500 	 0.708750 	 0.686500 	  
 12.875726 	 5.150617 	 5.773835 	 0.824500 	 0.706688 	 0.686438 	  
 8.639200 	 4.081661 	 7.015711 	 0.828125 	 0.708750 	 0.687188 	  
 7.978962 	 4.119388 	 6.496953 	 0.826438 	 0.706625 	 0.685937 	  
 15.768197 	 6.483669 	 6.276873 	 0.827375 	 0.708625 	 0.687875 	  
 23.636031 	 9.841450 	 2.669145 	 0.827000 	 0.706937 	 0.686000 	  
 24.304129 	 10.596007 	 4.649859 	 0.826562 	 0.708813 	 0.688000 	  
 17.371632 	 9.074316 	 -0.435545 	 0.827625 	 0.706875 	 0.686063 	  
 9.095079 	 8.709614 	 -2.832837 	 0.826813 	 0.708688 	 0.688000 	  
 3.483057 	 9.539627 	 -0.632044 	 0.827500 	 0.706750 	 0.685875 	  
 4.473414 	 10.206153 	 1.930307 	 0.828250 	 0.708875 	 0.687625 	  
 9.802476 	 10.596007 	 4.516239 	 0.826875 	 0.707000 	 0.686000 	  
 13.237285 	 10.721767 	 3.321523 	 0.826688 	 0.708875 	 0.688000 	  
 11.460931 	 10.558280 	 5.184337 	 0.827250 	 0.706750 	 0.685937 	  
 7.719583 	 11.300261 	 3.761681 	 0.828688 	 0.708937 	 0.687438 	  
 5.290851 	 12.683617 	 6.308313 	 0.828187 	 0.706750 	 0.686000 	  
 3.852476 	 13.828029 	 6.512673 	 0.826750 	 0.708562 	 0.687875 	  
 6.320508 	 13.928637 	 6.363333 	 0.827500 	 0.706813 	 0.686063 	  
 13.190125 	 14.871834 	 5.938894 	 0.825562 	 0.708500 	 0.688000 	  
 15.870377 	 15.840182 	 7.039291 	 0.828688 	 0.706937 	 0.685937 	  
 13.276585 	 14.620314 	 5.019277 	 0.826313 	 0.708438 	 0.688125 	  
 7.656703 	 12.067395 	 8.469806 	 0.828562 	 0.706625 	 0.685875 	  
 2.366940 	 10.143273 	 4.704878 	 0.826375 	 0.708063 	 0.687937 	  
 0.158287 	 9.615083 	 4.311880 	 0.829000 	 0.706562 	 0.686000 	  
 3.860335 	 9.627659 	 3.337243 	 0.825813 	 0.708313 	 0.688063 	  
 8.709940 	 7.099891 	 2.818484 	 0.828813 	 0.706562 	 0.685813 	  
 9.778896 	 5.930327 	 5.451576 	 0.826688 	 0.708313 	 0.688125 	  
 9.629557 	 6.986707 	 4.649859 	 0.828688 	 0.706750 	 0.685937 	  
 7.774603 	 5.754263 	 0.845631 	 0.827750 	 0.708438 	 0.687937 	  
 3.396597 	 3.301951 	 1.144310 	 0.827688 	 0.706562 	 0.686063 	  
 3.019318 	 2.283298 	 2.889224 	 0.829250 	 0.708625 	 0.687688 	  
 8.411261 	 2.949824 	 2.197546 	 0.827688 	 0.706813 	 0.685875 	  
 14.722820 	 3.918173 	 2.818484 	 0.829313 	 0.708438 	 0.687562 	  
 17.112253 	 4.408635 	 2.488366 	 0.827125 	 0.706562 	 0.686063 	  
 16.475595 	 4.094236 	 2.464786 	 0.827875 	 0.708438 	 0.688000 	  
 10.737813 	 2.723457 	 -1.496642 	 0.828000 	 0.706875 	 0.686000 	  
 4.127575 	 0.510088 	 -5.851067 	 0.828937 	 0.708750 	 0.687750 	  
 2.154721 	 -1.954800 	 -8.712098 	 0.828063 	 0.706375 	 0.685937 	  
 7.766743 	 -2.319503 	 -7.140103 	 0.828375 	 0.708313 	 0.688000 	  
 12.411988 	 -1.388882 	 -2.982177 	 0.827562 	 0.706250 	 0.686000 	  
 12.514167 	 -0.936147 	 -4.632771 	 0.830187 	 0.708375 	 0.687000 	  
 9.118658 	 0.145385 	 -5.418769 	 0.827562 	 0.706562 	 0.686188 	  
 4.355514 	 1.000551 	 0.036053 	 0.830125 	 0.708625 	 0.686937 	  
 -0.572690 	 2.056931 	 4.099660 	 0.827625 	 0.706688 	 0.685937 	  
 1.981802 	 2.044355 	 4.374759 	 0.830125 	 0.708562 	 0.687125 	  
 8.819979 	 3.301951 	 6.787772 	 0.827625 	 0.706750 	 0.686063 	  
 13.826783 	 5.540472 	 5.718815 	 0.829438 	 0.708562 	 0.687562 	  
 12.860006 	 7.263378 	 3.014984 	 0.828500 	 0.706750 	 0.685937 	  
 7.664563 	 7.401714 	 1.560889 	 0.827937 	 0.708625 	 0.688000 	  
 1.950362 	 7.628081 	 4.956398 	 0.828875 	 0.706875 	 0.685937 	  
 2.068261 	 9.262956 	 5.341536 	 0.829625 	 0.708625 	 0.687625 	  
 7.436624 	 12.218306 	 4.752038 	 0.828187 	 0.706438 	 0.685875 	  
 13.968263 	 13.211807 	 6.080374 	 0.827937 	 0.708625 	 0.687937 	  
 14.691380 	 11.765572 	 5.349396 	 0.829187 	 0.706562 	 0.685875 	  
 11.806770 	 10.394792 	 3.596622 	 0.827438 	 0.708562 	 0.687937 	  
 4.921432 	 9.476747 	 3.478722 	 0.829375 	 0.706750 	 0.686000 	  
 -2.459084 	 9.074316 	 6.261153 	 0.827438 	 0.708375 	 0.687937 	  
 -3.378701 	 8.256879 	 4.665579 	 0.828625 	 0.706625 	 0.686000 	  
 4.496993 	 7.791569 	 3.950321 	 0.826750 	 0.708438 	 0.687813 	  
 12.514167 	 8.847949 	 2.598405 	 0.830438 	 0.706750 	 0.685937 	  
 14.432001 	 9.703114 	 0.837771 	 0.828375 	 0.708625 	 0.688000 	  
 8.898579 	 8.143695 	 4.398339 	 0.828813 	 0.707063 	 0.686063 	  
 2.296201 	 8.131119 	 4.508379 	 0.829813 	 0.708750 	 0.687562 	  
 -0.132532 	 10.734343 	 5.797415 	 0.828000 	 0.706813 	 0.686000 	  
 4.701353 	 12.205730 	 5.695235 	 0.830750 	 0.708937 	 0.686875 	  
 13.418065 	 12.771648 	 3.997481 	 0.828250 	 0.707063 	 0.686188 	  
 18.181209 	 11.136774 	 2.566965 	 0.830313 	 0.708937 	 0.687000 	  
 16.043296 	 7.829296 	 2.519805 	 0.827375 	 0.706937 	 0.686063 	  
 12.419848 	 5.678807 	 2.464786 	 0.830250 	 0.709000 	 0.687125 	  
 8.151882 	 5.766839 	 6.379053 	 0.827625 	 0.706937 	 0.686000 	  
 4.669913 	 6.596852 	 4.076080 	 0.829250 	 0.708937 	 0.687625 	  
 7.570243 	 8.282031 	 6.418353 	 0.828125 	 0.707063 	 0.686000 	  
 14.840720 	 9.212652 	 3.588762 	 0.827375 	 0.708875 	 0.687875 	  
 18.393428 	 9.225228 	 3.227203 	 0.828125 	 0.707125 	 0.686000 	  
 17.363772 	 8.810221 	 5.412276 	 0.827313 	 0.709063 	 0.687937 	  
 14.164762 	 8.571278 	 3.549462 	 0.829125 	 0.707000 	 0.686000 	  
 9.535237 	 7.967632 	 3.305803 	 0.827000 	 0.709063 	 0.688125 	  
 5.770309 	 7.854448 	 4.272580 	 0.828500 	 0.707250 	 0.685875 	  
 8.191181 	 7.376562 	 4.956398 	 0.827438 	 0.709000 	 0.687937 	  
 12.223348 	 6.118966 	 4.170400 	 0.829250 	 0.707187 	 0.686063 	  
 13.355185 	 6.169270 	 3.942461 	 0.826813 	 0.709125 	 0.687937 	  
 11.492371 	 7.288530 	 3.557322 	 0.829625 	 0.707250 	 0.685937 	  
 5.110071 	 6.647156 	 5.553756 	 0.826313 	 0.708688 	 0.688125 	  
 -2.443364 	 4.949402 	 8.037508 	 0.828937 	 0.707250 	 0.686000 	  
 -1.673087 	 4.785914 	 6.481233 	 0.826250 	 0.708750 	 0.687937 	  
 7.845343 	 4.735610 	 5.451576 	 0.828813 	 0.707000 	 0.686000 	  
 15.217999 	 4.911674 	 2.527665 	 0.825625 	 0.708313 	 0.688000 	  
 14.942900 	 5.213497 	 3.848141 	 0.829562 	 0.706875 	 0.686000 	  
 8.348381 	 4.798490 	 2.614125 	 0.826500 	 0.708500 	 0.688000 	  
 0.543426 	 2.660577 	 2.920664 	 0.827750 	 0.707063 	 0.685937 	  
 -2.647723 	 1.440709 	 1.883148 	 0.825000 	 0.708688 	 0.688000 	  
 1.156504 	 2.987552 	 3.014984 	 0.826688 	 0.706750 	 0.686000 	  
 8.749240 	 4.735610 	 2.370466 	 0.825813 	 0.709063 	 0.687937 	  
 13.237285 	 4.961978 	 3.140743 	 0.826125 	 0.707000 	 0.685875 	  
 12.773547 	 3.905597 	 5.152897 	 0.827937 	 0.708937 	 0.687438 	  
 7.318724 	 3.050432 	 6.198274 	 0.825625 	 0.707125 	 0.686250 	  
 2.461260 	 2.082083 	 7.157190 	 0.828750 	 0.708813 	 0.686688 	  
 0.787085 	 1.428133 	 7.793848 	 0.825937 	 0.707000 	 0.686875 	  
 4.496993 	 3.591198 	 4.453359 	 0.828625 	 0.709250 	 0.686688 	  
 11.138672 	 6.823220 	 6.992131 	 0.825688 	 0.707125 	 0.686688 	  
 16.742834 	 7.150195 	 4.429779 	 0.829125 	 0.709063 	 0.686688 	  
 16.019716 	 5.817143 	 0.672711 	 0.827937 	 0.707125 	 0.685937 	  
 10.714233 	 4.836218 	 2.173967 	 0.828500 	 0.708937 	 0.687813 	  
 5.455910 	 5.163193 	 0.201113 	 0.826937 	 0.707000 	 0.685875 	  
 5.432330 	 6.848372 	 0.712011 	 0.826063 	 0.709313 	 0.688063 	  
 11.736030 	 7.565201 	 1.175750 	 0.826625 	 0.707438 	 0.685937 	  
 19.776784 	 7.037011 	 3.070004 	 0.828375 	 0.709250 	 0.687312 	  
 22.582795 	 7.816720 	 1.144310 	 0.826750 	 0.707313 	 0.686063 	  
 20.460602 	 8.445518 	 -4.003973 	 0.826688 	 0.709500 	 0.687937 	  
 13.221565 	 7.552625 	 2.260426 	 0.827375 	 0.707375 	 0.685937 	  
 5.911789 	 7.753841 	 1.325089 	 0.825625 	 0.709125 	 0.688063 	  
 2.987878 	 8.344911 	 -1.213682 	 0.827063 	 0.707500 	 0.686000 	  
 7.224405 	 9.325836 	 -4.357672 	 0.825688 	 0.709375 	 0.688000 	  
 12.781407 	 9.426443 	 -4.349812 	 0.825562 	 0.707625 	 0.686000 	  
 14.817140 	 7.452018 	 0.059633 	 0.827125 	 0.709438 	 0.687625 	  
 11.798910 	 5.502744 	 3.077864 	 0.825937 	 0.707375 	 0.685875 	  
 6.634907 	 5.276377 	 7.565909 	 0.824688 	 0.709500 	 0.688063 	  
 3.616676 	 8.080816 	 6.190414 	 0.825063 	 0.707562 	 0.685937 	  
 5.903929 	 12.054819 	 4.390479 	 0.825625 	 0.709250 	 0.687875 	  
 10.313375 	 12.381794 	 2.920664 	 0.825875 	 0.707125 	 0.686063 	  
 13.543824 	 10.922982 	 3.164323 	 0.825313 	 0.709125 	 0.688000 	  
 12.915026 	 10.734343 	 3.014984 	 0.826688 	 0.707187 	 0.685937 	  
 10.604194 	 11.841027 	 -0.129006 	 0.824937 	 0.708875 	 0.687875 	  
 7.876782 	 12.243458 	 0.153953 	 0.825500 	 0.707063 	 0.686000 	  
 4.669913 	 11.388293 	 5.435856 	 0.822500 	 0.708688 	 0.687937 	  
 3.954655 	 9.464171 	 6.017494 	 0.824125 	 0.706750 	 0.685875 	  
 7.562384 	 9.275532 	 3.887441 	 0.822313 	 0.708625 	 0.688000 	  
 11.885370 	 10.772071 	 2.276146 	 0.823000 	 0.706937 	 0.686000 	  
 13.630284 	 10.118121 	 3.321523 	 0.824562 	 0.709125 	 0.686875 	  
 11.924669 	 8.445518 	 5.097877 	 0.821813 	 0.707063 	 0.686625 	  
 9.881076 	 7.904752 	 4.154680 	 0.826187 	 0.709063 	 0.686688 	  
 8.945739 	 9.690538 	 0.342592 	 0.822438 	 0.706937 	 0.687438 	  
 11.264432 	 9.061740 	 2.991404 	 0.825750 	 0.708875 	 0.686500 	  
 15.595278 	 8.168847 	 4.555539 	 0.824375 	 0.707250 	 0.687562 	  
 19.053666 	 8.231727 	 3.840281 	 0.826250 	 0.708688 	 0.686562 	  
 17.851090 	 9.049164 	 6.111814 	 0.823063 	 0.706875 	 0.686875 	  
 12.985766 	 9.124620 	 4.924958 	 0.829063 	 0.709063 	 0.686937 	  
 8.686360 	 8.105968 	 4.099660 	 0.826750 	 0.707187 	 0.686125 	  
 10.352674 	 7.313682 	 5.569476 	 0.828875 	 0.709000 	 0.687250 	  
 13.897523 	 8.068240 	 6.764192 	 0.826313 	 0.707187 	 0.686000 	  
 14.707100 	 7.992784 	 4.697018 	 0.826562 	 0.708875 	 0.687937 	  
 13.378765 	 7.389138 	 7.196490 	 0.827750 	 0.707000 	 0.686000 	  
 12.246928 	 5.892599 	 5.490876 	 0.825813 	 0.709125 	 0.688063 	  
 7.232265 	 4.660155 	 3.431562 	 0.827500 	 0.707000 	 0.685937 	  
 -0.674870 	 4.723034 	 1.450849 	 0.826813 	 0.708813 	 0.688000 	  
 -2.459084 	 4.911674 	 2.794905 	 0.826688 	 0.707187 	 0.686000 	  
 2.964298 	 3.754686 	 3.274363 	 0.828187 	 0.708813 	 0.687750 	  
 6.784246 	 2.761185 	 2.166107 	 0.827562 	 0.707000 	 0.686063 	  
 6.776386 	 2.396482 	 3.903161 	 0.826562 	 0.709000 	 0.688000 	  
 4.937152 	 2.622849 	 5.184337 	 0.827125 	 0.707187 	 0.685937 	  
 3.750296 	 3.867869 	 7.133611 	 0.825375 	 0.708750 	 0.687937 	  
 1.282264 	 5.439864 	 9.106464 	 0.826562 	 0.707000 	 0.686000 	  
 2.170441 	 6.684884 	 9.263664 	 0.825250 	 0.708562 	 0.688000 	  
 6.548447 	 6.420789 	 6.009634 	 0.827125 	 0.706875 	 0.685937 	  
 10.502014 	 6.697460 	 2.574825 	 0.824625 	 0.708625 	 0.687937 	  
 10.242635 	 7.250802 	 0.491932 	 0.826313 	 0.706688 	 0.685937 	  
 5.872489 	 6.370485 	 0.908511 	 0.826187 	 0.708562 	 0.688000 	  
 -2.097525 	 4.056509 	 0.672711 	 0.828688 	 0.706438 	 0.685937 	  
 -6.208292 	 1.503589 	 -3.383035 	 0.826313 	 0.708500 	 0.688000 	  
 -3.017142 	 -1.376306 	 -1.905360 	 0.826875 	 0.706438 	 0.685937 	  
 1.353004 	 -0.898419 	 0.091073 	 0.827625 	 0.708625 	 0.687188 	  
 2.382660 	 2.006627 	 -0.042546 	 0.825250 	 0.706875 	 0.686000 	  
 3.035038 	 2.849217 	 -0.930723 	 0.828187 	 0.708875 	 0.686750 	  
 2.964298 	 3.729534 	 0.617692 	 0.826375 	 0.707125 	 0.687562 	  
 0.724206 	 4.949402 	 0.287573 	 0.829125 	 0.708875 	 0.686312 	  
 2.736359 	 5.955478 	 1.930307 	 0.826375 	 0.706875 	 0.687937 	  
 11.492371 	 6.144118 	 2.936384 	 0.829250 	 0.708750 	 0.686375 	  
 19.140126 	 7.301106 	 4.814918 	 0.827063 	 0.706750 	 0.687813 	  
 22.763574 	 8.244303 	 2.582685 	 0.829875 	 0.708813 	 0.686188 	  
 19.706044 	 8.005360 	 5.435856 	 0.826438 	 0.706750 	 0.687625 	  
 13.504524 	 6.609428 	 5.569476 	 0.828562 	 0.708813 	 0.687000 	  
 7.656703 	 7.187922 	 7.573769 	 0.825688 	 0.706875 	 0.686000 	  
 7.192965 	 8.030512 	 4.752038 	 0.826688 	 0.708813 	 0.687937 	  
 10.093295 	 8.395215 	 -1.142943 	 0.826375 	 0.706937 	 0.686000 	  
 9.826056 	 7.187922 	 -6.880724 	 0.825813 	 0.708688 	 0.687937 	  
 6.902146 	 4.710458 	 -8.641358 	 0.826187 	 0.706875 	 0.686125 	  
 5.062912 	 3.540894 	 0.114653 	 0.825813 	 0.708937 	 0.688000 	  
 5.094352 	 5.427288 	 4.838498 	 0.826063 	 0.707063 	 0.685875 	  
 9.071499 	 7.363986 	 5.498736 	 0.826438 	 0.708875 	 0.687625 	  
 13.504524 	 7.263378 	 6.379053 	 0.825875 	 0.707000 	 0.686063 	  
 15.626717 	 5.716535 	 9.601643 	 0.824625 	 0.709000 	 0.687937 	  
 14.487021 	 5.754263 	 10.607719 	 0.823313 	 0.706937 	 0.686063 	  
 12.577047 	 5.854871 	 9.868882 	 0.821813 	 0.708875 	 0.688250 	  
 9.668857 	 6.521397 	 3.549462 	 0.822500 	 0.707000 	 0.686000 	  
 4.764233 	 7.489745 	 0.177533 	 0.824125 	 0.708625 	 0.688000 	  
 1.926782 	 8.068240 	 2.511945 	 0.824125 	 0.706813 	 0.686000 	  
 7.672423 	 8.043088 	 1.419409 	 0.824438 	 0.708813 	 0.687688 	  
 14.408421 	 9.527051 	 3.871721 	 0.823250 	 0.706500 	 0.686063 	  
 16.915753 	 11.438597 	 4.209700 	 0.825125 	 0.708750 	 0.688063 	  
 16.090456 	 12.884832 	 3.856001 	 0.823750 	 0.706813 	 0.686000 	  
 11.979689 	 12.884832 	 5.207917 	 0.824375 	 0.708750 	 0.687750 	  
 6.446267 	 11.262533 	 5.145037 	 0.823750 	 0.706625 	 0.686125 	  
 4.567733 	 7.942480 	 2.260426 	 0.824063 	 0.708875 	 0.687875 	  
 7.923942 	 5.213497 	 4.885658 	 0.823000 	 0.706875 	 0.685875 	  
 12.050429 	 4.484091 	 2.496226 	 0.824937 	 0.709063 	 0.687875 	  
 14.188342 	 6.370485 	 2.425486 	 0.824750 	 0.707375 	 0.686125 	  
 13.331605 	 7.804144 	 2.999264 	 0.826937 	 0.709187 	 0.686688 	  
 10.132595 	 8.068240 	 3.125023 	 0.824313 	 0.707250 	 0.687063 	  
 7.122225 	 7.967632 	 4.594839 	 0.826562 	 0.709187 	 0.686688 	  
 7.059345 	 9.225228 	 3.313663 	 0.822688 	 0.707187 	 0.687500 	  
 13.520244 	 10.948134 	 4.649859 	 0.825125 	 0.709125 	 0.686500 	  
 20.114763 	 10.797223 	 3.117164 	 0.822125 	 0.706937 	 0.687312 	  
 19.902544 	 7.904752 	 1.875288 	 0.824250 	 0.708875 	 0.686813 	  
 13.056506 	 5.087737 	 1.568749 	 0.824000 	 0.707063 	 0.686188 	  
 7.043625 	 4.333180 	 1.600188 	 0.826500 	 0.708750 	 0.687438 	  
 4.732793 	 6.433365 	 3.714522 	 0.825813 	 0.706750 	 0.686000 	  
 7.688143 	 8.080816 	 1.725948 	 0.827063 	 0.708937 	 0.687813 	  
 12.042569 	 7.363986 	 2.040347 	 0.825562 	 0.707000 	 0.686063 	  
 15.068659 	 7.238226 	 -1.771741 	 0.822375 	 0.708813 	 0.688063 	  
 14.463441 	 8.935981 	 1.136450 	 0.823313 	 0.706813 	 0.686000 	  
 9.943956 	 8.659310 	 0.570532 	 0.827000 	 0.708875 	 0.687562 	  
 3.852476 	 7.351410 	 0.641272 	 0.825375 	 0.706875 	 0.686000 	  
 2.131141 	 7.137619 	 0.759171 	 0.825625 	 0.708750 	 0.687875 	  
 5.125791 	 8.420366 	 1.325089 	 0.825625 	 0.707063 	 0.686125 	  
 8.623480 	 8.998861 	 3.486582 	 0.823562 	 0.708813 	 0.688125 	  
 8.033982 	 9.413867 	 4.201840 	 0.824875 	 0.706937 	 0.685937 	  
 7.420904 	 8.520974 	 1.207190 	 0.826375 	 0.709000 	 0.687875 	  
 4.614893 	 9.149772 	 3.659502 	 0.825875 	 0.707000 	 0.686000 	  
 -0.596270 	 10.948134 	 6.921391 	 0.825750 	 0.708562 	 0.688000 	  
 -2.946402 	 10.734343 	 5.380836 	 0.824625 	 0.707000 	 0.686063 	  
 2.689199 	 8.659310 	 4.948538 	 0.825813 	 0.709000 	 0.687562 	  
 7.098645 	 5.628504 	 6.284733 	 0.823875 	 0.706813 	 0.686000 	  
 7.876782 	 3.817565 	 5.624495 	 0.824500 	 0.709125 	 0.688188 	  
 5.220111 	 3.427711 	 4.508379 	 0.824438 	 0.707313 	 0.685875 	  
 0.331207 	 3.125888 	 4.178260 	 0.826000 	 0.709063 	 0.687375 	  
 -3.190062 	 3.000128 	 4.382619 	 0.822063 	 0.707000 	 0.686063 	  
 1.046465 	 3.151040 	 5.663795 	 0.823500 	 0.709187 	 0.687562 	  
 9.409478 	 2.220419 	 -1.308002 	 0.824000 	 0.707438 	 0.686000 	  
 13.913243 	 0.799335 	 2.276146 	 0.826375 	 0.709375 	 0.686875 	  
 13.331605 	 1.013126 	 1.442989 	 0.822438 	 0.707562 	 0.687500 	  
 11.728170 	 1.541317 	 2.095367 	 0.825125 	 0.709500 	 0.686438 	  
 8.985039 	 1.453285 	 4.414059 	 0.821937 	 0.707313 	 0.688000 	  
 6.587747 	 2.786337 	 3.431562 	 0.824625 	 0.708625 	 0.686250 	  
 9.370178 	 5.150617 	 3.345103 	 0.821875 	 0.707438 	 0.688063 	  
 15.941116 	 6.093814 	 3.117164 	 0.824625 	 0.708000 	 0.686250 	  
 20.374142 	 5.779415 	 2.897084 	 0.826625 	 0.707688 	 0.688125 	  
 20.861460 	 5.527896 	 3.879581 	 0.830000 	 0.708250 	 0.686125 	  
 17.253732 	 6.886099 	 4.555539 	 0.826313 	 0.708438 	 0.688063 	  
 11.728170 	 9.124620 	 2.519805 	 0.827937 	 0.707813 	 0.686125 	  
 10.077575 	 10.545704 	 2.920664 	 0.825750 	 0.708750 	 0.688063 	  
 14.455581 	 10.621159 	 5.372976 	 0.828125 	 0.707500 	 0.686063 	  
 19.045806 	 10.608583 	 0.444772 	 0.826688 	 0.709063 	 0.688188 	  
 17.882530 	 10.860103 	 2.228986 	 0.829688 	 0.707187 	 0.686125 	  
 13.465224 	 9.149772 	 4.390479 	 0.826438 	 0.709250 	 0.687937 	  
 7.350164 	 6.420789 	 1.270069 	 0.829937 	 0.707625 	 0.686188 	  
 2.162581 	 5.540472 	 3.297943 	 0.823438 	 0.708937 	 0.688125 	  
 1.635963 	 5.615928 	 1.741668 	 0.827187 	 0.707187 	 0.686063 	  
 6.572027 	 5.993206 	 2.048207 	 0.823438 	 0.708875 	 0.688188 	  
 10.187615 	 6.244726 	 7.715249 	 0.825063 	 0.707000 	 0.686000 	  
 11.500231 	 6.710036 	 4.382619 	 0.822875 	 0.708625 	 0.688188 	  
 9.943956 	 7.892176 	 3.895301 	 0.824562 	 0.707000 	 0.686188 	  
 5.047192 	 9.074316 	 8.446226 	 0.825000 	 0.708625 	 0.688063 	  
 -1.657367 	 8.709614 	 6.921391 	 0.825750 	 0.706813 	 0.686125 	  
 -2.388344 	 8.307183 	 3.007124 	 0.824313 	 0.708562 	 0.688125 	  
 4.732793 	 8.395215 	 4.752038 	 0.824937 	 0.706937 	 0.686063 	  
 13.653864 	 8.370063 	 1.372249 	 0.823875 	 0.708375 	 0.688063 	  
 17.261592 	 8.105968 	 4.193980 	 0.824250 	 0.706813 	 0.686125 	  
 11.138672 	 7.452018 	 3.305803 	 0.824937 	 0.708688 	 0.687937 	  
 2.178301 	 6.999283 	 -2.699218 	 0.824688 	 0.706625 	 0.685937 	  
 -2.466944 	 6.886099 	 0.271853 	 0.824750 	 0.708625 	 0.688125 	  
 1.305844 	 6.999283 	 1.458709 	 0.826625 	 0.706875 	 0.686125 	  
 10.667073 	 7.074739 	 -3.147236 	 0.827500 	 0.709125 	 0.686750 	  
 16.192636 	 7.640657 	 -2.251199 	 0.824688 	 0.707063 	 0.687688 	  
 14.298382 	 6.332757 	 -1.213682 	 0.826937 	 0.708875 	 0.686375 	  
 10.871433 	 5.942903 	 -0.404105 	 0.826000 	 0.707187 	 0.688000 	  
 7.593823 	 7.502321 	 0.853491 	 0.828187 	 0.707875 	 0.686063 	  
 4.536293 	 8.986285 	 0.963530 	 0.825500 	 0.708063 	 0.688125 	  
 5.141511 	 7.590353 	 1.820268 	 0.828688 	 0.707250 	 0.686000 	  
 9.472357 	 5.980630 	 1.152170 	 0.825875 	 0.708875 	 0.688125 	  
 12.097589 	 6.018358 	 4.752038 	 0.827625 	 0.707063 	 0.686063 	  
 10.871433 	 6.999283 	 4.131100 	 0.825250 	 0.708937 	 0.688125 	  
 7.829623 	 8.068240 	 6.198274 	 0.827562 	 0.707000 	 0.686000 	  
 2.885699 	 7.955056 	 5.034997 	 0.825000 	 0.709125 	 0.688125 	  
 3.742436 	 7.967632 	 6.441933 	 0.827625 	 0.707000 	 0.686063 	  
 10.965752 	 6.923827 	 4.956398 	 0.825375 	 0.708937 	 0.688000 	  
 15.846797 	 6.747764 	 6.269013 	 0.826000 	 0.707000 	 0.686063 	  
 15.500958 	 6.785492 	 4.673438 	 0.826438 	 0.708937 	 0.687875 	  
 10.879293 	 7.024435 	 3.415843 	 0.826063 	 0.706875 	 0.686063 	  
 5.675990 	 6.647156 	 5.247217 	 0.825000 	 0.709000 	 0.688188 	  
 2.610600 	 6.307605 	 4.626279 	 0.825625 	 0.707187 	 0.686063 	  
 4.897852 	 7.942480 	 5.553756 	 0.826813 	 0.708875 	 0.687937 	  
 13.551684 	 10.797223 	 4.932818 	 0.827813 	 0.706937 	 0.686188 	  
 18.354129 	 11.136774 	 3.958181 	 0.825562 	 0.709000 	 0.688125 	  
 14.887880 	 9.715690 	 4.822778 	 0.826688 	 0.707000 	 0.686000 	  
 9.763176 	 8.558702 	 3.156463 	 0.825688 	 0.708875 	 0.688125 	  
 6.532727 	 8.080816 	 2.197546 	 0.825937 	 0.707125 	 0.686063 	  
 3.797456 	 6.810644 	 6.166834 	 0.825813 	 0.708750 	 0.687937 	  
 4.056835 	 5.402136 	 1.694508 	 0.825750 	 0.706937 	 0.686125 	  
 8.238341 	 5.251225 	 3.635922 	 0.824250 	 0.708875 	 0.688063 	  
 12.168329 	 7.062163 	 3.604482 	 0.824813 	 0.706813 	 0.686063 	  
 11.916809 	 7.879600 	 2.252566 	 0.825375 	 0.708688 	 0.688000 	  
 7.200825 	 7.401714 	 4.775618 	 0.825125 	 0.706813 	 0.686063 	  
 -0.132532 	 6.320181 	 3.376543 	 0.826875 	 0.708625 	 0.687312 	  
 -3.614500 	 6.332757 	 4.539819 	 0.824063 	 0.706750 	 0.686063 	  
 1.604523 	 6.093814 	 5.435856 	 0.826813 	 0.708937 	 0.686813 	  
 8.576320 	 5.527896 	 4.225420 	 0.824187 	 0.707250 	 0.687625 	  
 11.618130 	 5.628504 	 3.565182 	 0.827187 	 0.709000 	 0.686312 	  
 11.657430 	 6.697460 	 4.476939 	 0.824813 	 0.707688 	 0.688063 	  
 10.360534 	 5.955478 	 2.755605 	 0.827875 	 0.708187 	 0.686188 	  
 7.703863 	 5.439864 	 1.458709 	 0.826750 	 0.708063 	 0.688000 	  
 6.517007 	 5.188345 	 2.189687 	 0.830125 	 0.707750 	 0.686250 	  
 10.423414 	 5.905175 	 0.735591 	 0.827375 	 0.709063 	 0.688063 	  
 14.149042 	 6.546549 	 3.816701 	 0.830000 	 0.707562 	 0.686125 	  
 15.925396 	 6.609428 	 2.063927 	 0.827063 	 0.708875 	 0.688125 	  
 16.176916 	 5.641079 	 4.799198 	 0.829937 	 0.707125 	 0.686063 	  
 15.485238 	 5.314105 	 2.849924 	 0.827313 	 0.708750 	 0.688000 	  
 11.578831 	 5.829719 	 2.857784 	 0.829125 	 0.707000 	 0.686125 	  
 9.700297 	 6.093814 	 0.971390 	 0.827375 	 0.708875 	 0.688125 	  
 12.977906 	 6.584276 	 2.071787 	 0.829000 	 0.706875 	 0.686000 	  
 18.181209 	 8.043088 	 -1.528081 	 0.827625 	 0.708937 	 0.688250 	  
 19.839664 	 8.445518 	 -0.647764 	 0.828313 	 0.707000 	 0.686000 	  
 13.598844 	 6.647156 	 2.834204 	 0.828250 	 0.708875 	 0.687937 	  
 3.404457 	 5.578200 	 0.216833 	 0.828375 	 0.706875 	 0.686125 	  
 -3.803140 	 5.791991 	 2.126807 	 0.827937 	 0.708875 	 0.688063 	  
 -4.180418 	 7.024435 	 3.297943 	 0.828813 	 0.706875 	 0.685937 	  
 1.659543 	 7.326258 	 2.346886 	 0.828313 	 0.708688 	 0.687937 	  
 8.992899 	 8.357487 	 2.472646 	 0.828000 	 0.706750 	 0.686000 	  
 11.358751 	 10.181001 	 1.812408 	 0.827688 	 0.708625 	 0.688063 	  
 6.894286 	 10.746919 	 3.777401 	 0.828313 	 0.706813 	 0.686063 	  
 2.162581 	 9.954634 	 1.183610 	 0.828250 	 0.708937 	 0.688125 	  
 1.604523 	 9.275532 	 3.219343 	 0.827688 	 0.706875 	 0.685937 	  
 5.400891 	 8.495822 	 4.508379 	 0.828562 	 0.708625 	 0.687125 	  
 10.588474 	 8.772493 	 5.027137 	 0.827187 	 0.706625 	 0.686063 	  
 15.131539 	 9.300684 	 2.912804 	 0.828375 	 0.708750 	 0.687875 	  
 16.027576 	 8.797645 	 4.036781 	 0.827688 	 0.706625 	 0.685937 	  
 12.246928 	 7.389138 	 3.439422 	 0.827000 	 0.708688 	 0.688000 	  
 6.972885 	 6.357909 	 4.264720 	 0.827063 	 0.706813 	 0.685937 	  
 5.801749 	 5.553048 	 6.724892 	 0.829187 	 0.708688 	 0.687000 	  
 8.780680 	 4.785914 	 7.495169 	 0.825813 	 0.707063 	 0.686625 	  
 11.413771 	 3.327103 	 1.741668 	 0.828688 	 0.708937 	 0.686625 	  
 12.970046 	 3.553470 	 1.718088 	 0.824937 	 0.707000 	 0.687688 	  
 12.545607 	 4.798490 	 3.431562 	 0.828500 	 0.708875 	 0.686375 	  
 11.508091 	 6.420789 	 2.629845 	 0.825562 	 0.706813 	 0.688000 	  
 9.189398 	 6.458517 	 1.199330 	 0.828813 	 0.708625 	 0.686125 	  
 9.024339 	 6.961555 	 0.774891 	 0.825375 	 0.707187 	 0.688000 	  
 12.254788 	 6.571700 	 -2.227619 	 0.828438 	 0.708000 	 0.686125 	  
 12.396268 	 3.704382 	 -2.762097 	 0.825313 	 0.708187 	 0.688000 	  
 8.977179 	 0.132809 	 3.014984 	 0.828063 	 0.707438 	 0.686250 	  
 7.224405 	 1.654500 	 4.618419 	 0.825750 	 0.708875 	 0.688125 	  
 7.468064 	 6.194422 	 6.347613 	 0.828375 	 0.707187 	 0.686063 	  
 6.517007 	 10.067817 	 3.447282 	 0.825625 	 0.709063 	 0.688125 	  
 8.183322 	 11.161926 	 3.808841 	 0.827937 	 0.707500 	 0.686000 	  
 13.520244 	 10.357064 	 2.535525 	 0.825125 	 0.709000 	 0.688063 	  
 16.137616 	 8.847949 	 4.138960 	 0.826813 	 0.707063 	 0.686125 	  
 14.604921 	 8.080816 	 8.108247 	 0.826500 	 0.709250 	 0.688125 	  
 12.789267 	 9.300684 	 9.931761 	 0.828250 	 0.707250 	 0.685937 	  
 9.967536 	 12.029667 	 9.798142 	 0.827000 	 0.709187 	 0.688063 	  
 6.941446 	 13.211807 	 12.281894 	 0.825937 	 0.707375 	 0.686125 	  
 10.879293 	 11.400869 	 10.481960 	 0.825375 	 0.709125 	 0.688063 	  
 15.579558 	 9.124620 	 8.815645 	 0.824813 	 0.707187 	 0.686000 	  
 15.595278 	 8.470670 	 4.704878 	 0.824063 	 0.709187 	 0.688000 	  
 10.698513 	 8.835373 	 -1.826760 	 0.825750 	 0.706937 	 0.686000 	  
 3.404457 	 7.162771 	 -4.121873 	 0.825875 	 0.708875 	 0.687937 	  
 -3.410141 	 4.760762 	 -6.652785 	 0.826063 	 0.707063 	 0.686000 	  
 -4.227578 	 4.182268 	 -9.749615 	 0.825813 	 0.708688 	 0.687937 	  
 2.272621 	 4.157116 	 -7.627422 	 0.825000 	 0.706625 	 0.685937 	  
 5.990389 	 2.748609 	 0.263993 	 0.825562 	 0.708688 	 0.688063 	  
 4.976452 	 1.226918 	 2.205406 	 0.825187 	 0.706875 	 0.686000 	  
 2.665619 	 0.849639 	 2.944244 	 0.828000 	 0.708625 	 0.686937 	  
 -0.321171 	 1.025702 	 6.614852 	 0.825688 	 0.707000 	 0.686312 	  
 -3.685240 	 1.654500 	 7.172910 	 0.828562 	 0.708937 	 0.687000 	  
 -2.073945 	 2.949824 	 5.027137 	 0.826438 	 0.707187 	 0.686688 	  
 5.172951 	 2.572545 	 0.649132 	 0.829125 	 0.709313 	 0.686500 	  
 9.975396 	 1.327525 	 4.366899 	 0.826250 	 0.707375 	 0.688000 	  
 13.339465 	 0.686152 	 -0.286205 	 0.829125 	 0.708500 	 0.686125 	  
 13.237285 	 1.729956 	 -1.677421 	 0.826250 	 0.707750 	 0.688063 	  
 9.653137 	 1.729956 	 0.861351 	 0.829438 	 0.707937 	 0.686063 	  
 4.662053 	 -0.080982 	 2.056067 	 0.826250 	 0.709187 	 0.688063 	  
 7.774603 	 -1.439186 	 4.539819 	 0.828937 	 0.707688 	 0.686250 	  
 15.052939 	 0.761607 	 8.556266 	 0.825750 	 0.709562 	 0.688063 	  
 18.589928 	 1.880868 	 10.686319 	 0.828125 	 0.707813 	 0.686125 	  
 17.505251 	 0.497512 	 2.095367 	 0.825688 	 0.709500 	 0.688125 	  
 14.974340 	 -1.024179 	 1.969607 	 0.827250 	 0.707562 	 0.686125 	  
 10.211195 	 0.434632 	 4.005341 	 0.826500 	 0.709375 	 0.688000 	  
 7.279424 	 5.163193 	 3.816701 	 0.827375 	 0.707313 	 0.686063 	  
 13.205845 	 9.690538 	 3.950321 	 0.827937 	 0.709187 	 0.687937 	  
 21.026520 	 10.331912 	 9.373703 	 0.827250 	 0.707313 	 0.686000 	  
 21.513838 	 8.294607 	 7.259370 	 0.825875 	 0.709125 	 0.688000 	  
 15.713177 	 8.609006 	 8.721325 	 0.827375 	 0.707625 	 0.686188 	  
 9.833916 	 10.709191 	 9.994641 	 0.825813 	 0.709313 	 0.688063 	  
 5.000032 	 11.878755 	 7.117891 	 0.827313 	 0.707438 	 0.686000 	  
 3.632396 	 12.444673 	 7.707389 	 0.826500 	 0.709187 	 0.688125 	  
 10.557034 	 13.576510 	 9.703822 	 0.826688 	 0.707625 	 0.686125 	  
 16.617074 	 14.620314 	 8.909965 	 0.826813 	 0.709187 	 0.687937 	  
 17.858950 	 15.513208 	 6.999991 	 0.826688 	 0.707187 	 0.685937 	  
 15.603137 	 16.783379 	 5.663795 	 0.825625 	 0.709125 	 0.688063 	  
 10.329095 	 15.198809 	 1.741668 	 0.827125 	 0.707187 	 0.686063 	  
 3.679556 	 11.853603 	 -1.095783 	 0.824875 	 0.709313 	 0.688125 	  
 0.763506 	 10.482824 	 -4.294792 	 0.826375 	 0.707375 	 0.686063 	  
 4.064695 	 10.684039 	 -4.789971 	 0.825063 	 0.709000 	 0.688000 	  
 6.760666 	 10.055241 	 -8.617778 	 0.824937 	 0.707187 	 0.686125 	  
 6.367667 	 8.483246 	 -9.773195 	 0.827562 	 0.708937 	 0.687000 	  
 2.060401 	 7.112467 	 -4.672071 	 0.825500 	 0.707125 	 0.686250 	  
 -4.007499 	 6.081238 	 -4.852851 	 0.827438 	 0.709125 	 0.687125 	  
 -8.126126 	 5.603352 	 -1.252982 	 0.824875 	 0.707438 	 0.687000 	  
 -4.974276 	 4.270300 	 2.189687 	 0.827625 	 0.709375 	 0.686438 	  
 1.761722 	 4.320604 	 1.505869 	 0.824375 	 0.707500 	 0.688125 	  
 5.510930 	 5.666231 	 2.401906 	 0.826813 	 0.708250 	 0.686250 	  
 5.330151 	 7.037011 	 2.763465 	 0.824187 	 0.709562 	 0.688063 	  
 4.960732 	 6.886099 	 5.278657 	 0.828625 	 0.707688 	 0.686125 	  
 4.850692 	 7.062163 	 3.643782 	 0.824063 	 0.709375 	 0.688063 	  
 4.324074 	 8.709614 	 0.853491 	 0.825937 	 0.707438 	 0.686063 	  
 6.304788 	 10.243881 	 3.258643 	 0.823875 	 0.709250 	 0.688188 	  
 12.105449 	 9.816298 	 1.804548 	 0.825125 	 0.707688 	 0.686125 	  
 18.251949 	 9.262956 	 1.592328 	 0.824937 	 0.709562 	 0.688000 	  
 20.193363 	 8.810221 	 4.343320 	 0.822688 	 0.707313 	 0.686188 	  
 19.273746 	 9.011437 	 2.779185 	 0.825000 	 0.709250 	 0.687625 	  
 16.695674 	 9.489323 	 4.461219 	 0.824125 	 0.707375 	 0.686063 	  
 17.426652 	 9.652810 	 6.418353 	 0.825688 	 0.709250 	 0.688125 	  
 22.134776 	 9.489323 	 7.668089 	 0.826125 	 0.707500 	 0.686188 	  
 25.255186 	 8.533550 	 5.844575 	 0.827625 	 0.709375 	 0.688063 	  
 24.940787 	 8.030512 	 7.534469 	 0.827375 	 0.707250 	 0.686125 	  
 20.350562 	 8.005360 	 3.651642 	 0.829375 	 0.709375 	 0.687562 	  
 11.170112 	 7.879600 	 5.820995 	 0.827937 	 0.707500 	 0.686000 	  
 2.532000 	 7.225650 	 4.516239 	 0.827313 	 0.709125 	 0.688125 	  
 2.139001 	 7.301106 	 3.981761 	 0.827750 	 0.707625 	 0.686125 	  
 10.187615 	 7.628081 	 4.799198 	 0.829125 	 0.709313 	 0.687500 	  
 17.033653 	 7.804144 	 2.983544 	 0.827625 	 0.707187 	 0.686000 	  
 17.843230 	 7.678385 	 6.331893 	 0.827063 	 0.709438 	 0.688188 	  
 13.040786 	 7.514897 	 3.502302 	 0.828313 	 0.707500 	 0.686063 	  
 5.495210 	 6.697460 	 0.924231 	 0.829125 	 0.709125 	 0.687875 	  
 -0.336891 	 5.100313 	 3.211483 	 0.828750 	 0.707063 	 0.686250 	  
 -0.792769 	 3.716958 	 5.907454 	 0.828562 	 0.709187 	 0.688125 	  
 3.097918 	 2.874368 	 4.288300 	 0.829313 	 0.707125 	 0.686000 	  
 6.296928 	 2.836641 	 4.225420 	 0.827000 	 0.709000 	 0.688125 	  
 5.589530 	 2.170115 	 4.351180 	 0.827813 	 0.707250 	 0.686063 	  
 4.842832 	 1.906020 	 4.987837 	 0.829750 	 0.709063 	 0.687312 	  
 1.054325 	 1.880868 	 2.401906 	 0.827500 	 0.707000 	 0.686250 	  
 -3.025002 	 1.767684 	 2.291866 	 0.829187 	 0.709500 	 0.686937 	  
 -0.211131 	 3.138464 	 -0.553445 	 0.827313 	 0.707500 	 0.687688 	  
 8.686360 	 4.949402 	 0.028194 	 0.829187 	 0.709750 	 0.686500 	  
 12.663507 	 6.508821 	 4.547679 	 0.825750 	 0.708438 	 0.688125 	  
 11.539531 	 6.295029 	 1.600188 	 0.829500 	 0.708250 	 0.686125 	  
 8.293361 	 5.791991 	 2.221126 	 0.824313 	 0.708000 	 0.688188 	  
 3.648116 	 6.144118 	 0.452632 	 0.827187 	 0.708500 	 0.686250 	  
 1.242964 	 7.426866 	 -1.119363 	 0.824750 	 0.709375 	 0.688125 	  
 5.754589 	 6.823220 	 3.816701 	 0.828313 	 0.708125 	 0.686125 	  
 11.052212 	 4.974554 	 3.667362 	 0.826187 	 0.709813 	 0.688250 	  
 12.364828 	 3.754686 	 5.687375 	 0.829750 	 0.708125 	 0.686250 	  
 8.914299 	 4.421211 	 3.973901 	 0.825688 	 0.709937 	 0.688125 	  
 2.752079 	 5.754263 	 5.435856 	 0.828500 	 0.708000 	 0.686188 	  
 -0.918529 	 7.628081 	 2.213266 	 0.827313 	 0.709688 	 0.688063 	  
 0.488406 	 8.319759 	 3.997481 	 0.829313 	 0.707750 	 0.686125 	  
 7.751023 	 8.307183 	 3.250783 	 0.827688 	 0.709438 	 0.688188 	  
 14.636361 	 8.332335 	 4.036781 	 0.829063 	 0.707438 	 0.686125 	  
 18.071169 	 9.803722 	 3.140743 	 0.828250 	 0.709500 	 0.688125 	  
 18.354129 	 11.337989 	 4.524099 	 0.828813 	 0.707750 	 0.686125 	  
 15.202279 	 12.406946 	 1.545169 	 0.829187 	 0.709688 	 0.688063 	  
 12.608487 	 12.205730 	 0.484072 	 0.828187 	 0.707875 	 0.686125 	  
 14.408421 	 10.684039 	 1.513729 	 0.829688 	 0.709688 	 0.687813 	  
 16.994353 	 9.828874 	 1.828128 	 0.828250 	 0.707937 	 0.686063 	  
 16.514895 	 10.243881 	 4.649859 	 0.826562 	 0.709688 	 0.688000 	  
 12.129029 	 10.495400 	 3.620202 	 0.826937 	 0.707813 	 0.686188 	  
 8.505580 	 9.979785 	 0.554812 	 0.828063 	 0.709562 	 0.687813 	  
 2.500560 	 9.451595 	 2.692725 	 0.827000 	 0.707500 	 0.686125 	  
 -0.942109 	 9.904330 	 2.763465 	 0.827000 	 0.709187 	 0.688063 	  
 2.767799 	 10.067817 	 4.044641 	 0.826688 	 0.707438 	 0.686000 	  
 8.725660 	 8.596430 	 7.039291 	 0.828937 	 0.709250 	 0.687125 	  
 10.651354 	 6.596852 	 4.665579 	 0.827500 	 0.707937 	 0.686125 	  
 9.362318 	 4.961978 	 5.388696 	 0.827000 	 0.709625 	 0.688250 	  
 6.312648 	 5.389560 	 2.834204 	 0.827375 	 0.707500 	 0.686125 	  
 3.923215 	 6.420789 	 0.633412 	 0.828250 	 0.709375 	 0.687125 	  
 3.176518 	 6.860948 	 4.437639 	 0.825875 	 0.707813 	 0.687188 	  
 7.397324 	 6.156694 	 3.384403 	 0.828625 	 0.709625 	 0.686500 	  
 11.232992 	 7.011859 	 5.058577 	 0.825688 	 0.707625 	 0.688063 	  
 14.172622 	 8.684462 	 5.860295 	 0.826750 	 0.709375 	 0.686375 	  
 14.062582 	 9.401291 	 5.915314 	 0.825250 	 0.707438 	 0.688063 	  
 9.582397 	 8.307183 	 4.296160 	 0.827063 	 0.708937 	 0.686312 	  
 4.449834 	 7.175347 	 6.009634 	 0.824688 	 0.707875 	 0.688063 	  
 7.491644 	 5.565624 	 6.080374 	 0.827063 	 0.709187 	 0.686188 	  
 14.282662 	 3.880445 	 1.490149 	 0.822688 	 0.707375 	 0.688063 	  
 16.365555 	 3.088160 	 -0.160446 	 0.826750 	 0.708562 	 0.686375 	  
 12.954326 	 2.509666 	 2.464786 	 0.824875 	 0.708000 	 0.688063 	  
 10.046135 	 2.748609 	 2.001047 	 0.827500 	 0.708562 	 0.686125 	  
 8.120442 	 3.251647 	 -0.207606 	 0.821937 	 0.707688 	 0.688188 	  
 5.188671 	 4.622427 	 -0.781384 	 0.826750 	 0.708250 	 0.686125 	  
 5.062912 	 6.609428 	 -0.286205 	 0.823875 	 0.708250 	 0.688125 	  
 8.906439 	 7.011859 	 -0.600604 	 0.826313 	 0.708063 	 0.686250 	  
 12.191909 	 5.917751 	 -0.482705 	 0.824750 	 0.709250 	 0.688125 	  
 12.309808 	 5.263801 	 0.397612 	 0.829438 	 0.707813 	 0.686188 	  
 9.621697 	 5.578200 	 -0.867844 	 0.825937 	 0.709187 	 0.688188 	  
 4.850692 	 4.961978 	 2.040347 	 0.829000 	 0.707625 	 0.686250 	  
 0.755646 	 4.572123 	 1.010690 	 0.826875 	 0.709500 	 0.688063 	  
 2.893559 	 5.276377 	 1.568749 	 0.829750 	 0.707750 	 0.686125 	  
 8.199041 	 7.137619 	 4.476939 	 0.827063 	 0.709313 	 0.688063 	  
 11.806770 	 8.269455 	 3.235063 	 0.828937 	 0.707313 	 0.686000 	  
 12.498448 	 6.571700 	 -0.608464 	 0.827813 	 0.709250 	 0.688188 	  
 8.332661 	 4.924250 	 -0.113286 	 0.829250 	 0.707500 	 0.686063 	  
 1.054325 	 4.886522 	 1.277929 	 0.828250 	 0.709187 	 0.688063 	  
 -2.113245 	 6.030934 	 0.790611 	 0.829562 	 0.707063 	 0.686063 	  
 2.822819 	 7.125043 	 3.439422 	 0.830000 	 0.709375 	 0.687937 	  
 7.664563 	 7.577777 	 4.319740 	 0.829625 	 0.707313 	 0.685937 	  
 9.323018 	 7.628081 	 5.388696 	 0.828875 	 0.709063 	 0.688125 	  
 7.232265 	 8.344911 	 3.258643 	 0.829438 	 0.707562 	 0.686063 	  
 4.410534 	 8.885677 	 1.773108 	 0.831000 	 0.709438 	 0.687500 	  
 0.928565 	 8.822797 	 4.327600 	 0.829000 	 0.707500 	 0.686438 	  
 1.903202 	 7.275954 	 2.008907 	 0.831250 	 0.709688 	 0.686813 	  
 7.090785 	 6.056086 	 1.160030 	 0.828688 	 0.707750 	 0.687937 	  
 11.570971 	 6.093814 	 0.649132 	 0.831813 	 0.709500 	 0.686375 	  
 12.191909 	 6.898675 	 -1.520221 	 0.828375 	 0.707625 	 0.688125 	  
 9.472357 	 6.408213 	 0.413332 	 0.831562 	 0.709500 	 0.686312 	  
 4.379094 	 6.081238 	 -0.309785 	 0.829063 	 0.707750 	 0.688063 	  
 0.394087 	 6.810644 	 1.710228 	 0.831875 	 0.708438 	 0.686250 	  
 3.066478 	 7.791569 	 3.887441 	 0.828750 	 0.708375 	 0.688125 	  
 12.341248 	 6.332757 	 3.070004 	 0.831750 	 0.708438 	 0.686000 	  
 20.216943 	 3.729534 	 3.635922 	 0.828375 	 0.709063 	 0.688125 	  
 21.270179 	 2.685729 	 4.744178 	 0.831562 	 0.708000 	 0.686188 	  
 17.552411 	 3.478014 	 4.288300 	 0.828562 	 0.709250 	 0.688063 	  
 12.388408 	 4.421211 	 5.828855 	 0.831500 	 0.707688 	 0.686250 	  
 10.006836 	 6.672308 	 4.987837 	 0.828125 	 0.709500 	 0.688125 	  
 13.190125 	 7.137619 	 4.752038 	 0.829063 	 0.707500 	 0.686063 	  
 17.851090 	 7.037011 	 5.742395 	 0.827000 	 0.709438 	 0.688188 	  
 18.377708 	 6.471093 	 7.675949 	 0.829438 	 0.707688 	 0.686188 	  
 16.538474 	 7.137619 	 5.813135 	 0.827438 	 0.709562 	 0.688063 	  
 14.046863 	 7.766417 	 5.797415 	 0.829000 	 0.707688 	 0.686125 	  
 9.150098 	 7.326258 	 6.685592 	 0.827063 	 0.709500 	 0.688250 	  
 7.405184 	 6.948979 	 4.869938 	 0.828875 	 0.707750 	 0.686000 	  
 13.457364 	 7.540049 	 5.302236 	 0.827562 	 0.709500 	 0.688063 	  
 19.470245 	 8.961133 	 7.251510 	 0.828500 	 0.707750 	 0.686000 	  
 21.796797 	 10.004937 	 7.888168 	 0.828187 	 0.709438 	 0.688000 	  
 16.821434 	 10.520552 	 6.520532 	 0.829125 	 0.707313 	 0.686125 	  
 8.403401 	 10.092969 	 3.148603 	 0.828375 	 0.709500 	 0.688125 	  
 0.598446 	 9.250380 	 4.374759 	 0.828813 	 0.707500 	 0.686000 	  
 1.345144 	 9.112044 	 2.551245 	 0.828875 	 0.709438 	 0.688000 	  
 9.598117 	 9.439019 	 1.026410 	 0.828625 	 0.707813 	 0.686063 	  
 18.181209 	 8.043088 	 2.873504 	 0.829875 	 0.709500 	 0.687688 	  
 20.146203 	 6.483669 	 -0.278345 	 0.828313 	 0.707688 	 0.686000 	  
 13.866083 	 7.301106 	 2.024627 	 0.830500 	 0.709937 	 0.687000 	  
 4.449834 	 8.558702 	 1.796688 	 0.828125 	 0.707875 	 0.687375 	  
 -1.225068 	 8.206575 	 2.417626 	 0.831125 	 0.709625 	 0.686500 	  
 1.486623 	 7.804144 	 2.582685 	 0.827750 	 0.707813 	 0.688063 	  
 9.315158 	 8.005360 	 2.700585 	 0.830250 	 0.709000 	 0.686125 	  
 14.062582 	 8.734765 	 2.684865 	 0.827375 	 0.708500 	 0.688063 	  
 13.960403 	 8.206575 	 2.441206 	 0.830000 	 0.708875 	 0.686250 	  
 10.313375 	 7.615505 	 6.575552 	 0.826937 	 0.708562 	 0.688063 	  
 4.088275 	 7.640657 	 1.678788 	 0.830313 	 0.708625 	 0.686188 	  
 -0.093232 	 7.087315 	 5.121457 	 0.827000 	 0.709375 	 0.688250 	  
 1.832462 	 5.678807 	 4.854218 	 0.830000 	 0.708375 	 0.686188 	  
 6.642766 	 4.723034 	 -0.294065 	 0.827063 	 0.709688 	 0.688063 	  
 8.309081 	 4.069085 	 -3.162956 	 0.829813 	 0.708562 	 0.686188 	  
 5.691710 	 4.119388 	 -1.803181 	 0.827125 	 0.709875 	 0.688188 	  
 0.849965 	 3.880445 	 -0.812824 	 0.829688 	 0.707875 	 0.686063 	  
 -2.922823 	 4.320604 	 2.386186 	 0.826875 	 0.709625 	 0.688188 	  
 -2.757763 	 4.534395 	 2.983544 	 0.828625 	 0.707875 	 0.686188 	  
 4.465554 	 4.760762 	 -6.094727 	 0.827813 	 0.709875 	 0.688063 	  
 10.863573 	 5.540472 	 0.617692 	 0.828063 	 0.708000 	 0.686188 	  
 15.060799 	 6.320181 	 -1.308002 	 0.829125 	 0.710063 	 0.687937 	  
 13.638144 	 5.766839 	 0.106793 	 0.828125 	 0.708063 	 0.686000 	  
 7.806043 	 4.836218 	 2.323306 	 0.828187 	 0.709875 	 0.688125 	  
 1.140784 	 5.062585 	 6.426213 	 0.827750 	 0.708000 	 0.686188 	  
 2.241181 	 6.697460 	 8.548406 	 0.829187 	 0.709688 	 0.687750 	  
 9.621697 	 7.728689 	 7.903888 	 0.828000 	 0.707500 	 0.686125 	  
 14.251222 	 7.552625 	 3.745961 	 0.826813 	 0.709688 	 0.688188 	  
 13.748183 	 7.313682 	 1.057850 	 0.828125 	 0.707937 	 0.686000 	  
 12.097589 	 7.527473 	 0.224693 	 0.827875 	 0.709625 	 0.688000 	  
 9.260138 	 10.155849 	 1.065710 	 0.827250 	 0.707562 	 0.686063 	  
 6.367667 	 11.815875 	 0.397612 	 0.829562 	 0.709500 	 0.687125 	  
 5.786029 	 11.451173 	 2.166107 	 0.826937 	 0.707375 	 0.686000 	  
 8.757100 	 9.011437 	 2.103227 	 0.828813 	 0.709688 	 0.687438 	  
 12.702807 	 7.678385 	 5.404416 	 0.827313 	 0.707813 	 0.686063 	  
 13.606704 	 6.383061 	 7.872448 	 0.828625 	 0.709688 	 0.687063 	  
 9.841776 	 5.087737 	 9.098604 	 0.826875 	 0.707813 	 0.686875 	  
 3.042898 	 5.703959 	 5.467296 	 0.830500 	 0.710375 	 0.686562 	  
 -1.075729 	 7.464594 	 1.702368 	 0.826625 	 0.707875 	 0.687875 	  
 2.980018 	 6.307605 	 3.132883 	 0.829250 	 0.709438 	 0.686500 	  
 11.107232 	 6.018358 	 5.176477 	 0.827375 	 0.708438 	 0.688125 	  
 16.562054 	 6.710036 	 9.216504 	 0.829875 	 0.708750 	 0.686125 	  
 15.587418 	 6.257301 	 8.147547 	 0.826688 	 0.708313 	 0.688188 	  
 9.786756 	 5.691383 	 6.764192 	 0.830875 	 0.708750 	 0.686188 	  
 4.080415 	 6.596852 	 8.092527 	 0.827750 	 0.709125 	 0.688125 	  
 4.276914 	 6.697460 	 0.539092 	 0.829688 	 0.708813 	 0.686312 	  
 10.384114 	 6.684884 	 0.861351 	 0.826937 	 0.709813 	 0.688188 	  
 13.103666 	 4.282876 	 -0.341225 	 0.830375 	 0.708438 	 0.686125 	  
 13.095806 	 3.389983 	 0.829911 	 0.827500 	 0.709750 	 0.688125 	  
 13.135105 	 5.452440 	 -0.459125 	 0.831688 	 0.708187 	 0.686125 	  
 11.044352 	 7.389138 	 3.785261 	 0.829313 	 0.710063 	 0.688125 	  
 3.946795 	 6.999283 	 4.476939 	 0.831063 	 0.708187 	 0.686063 	  
 0.779225 	 5.917751 	 4.429779 	 0.828750 	 0.710000 	 0.688188 	  
 8.804259 	 7.804144 	 5.357256 	 0.830438 	 0.708187 	 0.686125 	  
 18.810007 	 10.746919 	 5.726675 	 0.829063 	 0.710250 	 0.688312 	  
 20.421302 	 10.960710 	 3.643782 	 0.829937 	 0.708562 	 0.686063 	  
 15.430218 	 9.124620 	 4.830638 	 0.829875 	 0.710313 	 0.688000 	  
 8.049702 	 7.791569 	 2.818484 	 0.829625 	 0.707937 	 0.686000 	  
 3.341577 	 8.785069 	 7.227930 	 0.828625 	 0.709875 	 0.688063 	  
 4.418394 	 9.250380 	 6.190414 	 0.829375 	 0.707875 	 0.686125 	  
 9.330878 	 8.810221 	 3.620202 	 0.828813 	 0.709750 	 0.688063 	  
 12.977906 	 8.722190 	 -0.875704 	 0.828688 	 0.707875 	 0.686188 	  
 10.832133 	 8.671886 	 -3.673855 	 0.830438 	 0.709625 	 0.687375 	  
 4.402674 	 7.527473 	 -1.410182 	 0.828125 	 0.707500 	 0.686063 	  
 -3.229362 	 5.276377 	 -3.783894 	 0.829125 	 0.709875 	 0.688000 	  
 -8.550564 	 4.471515 	 -0.482705 	 0.827875 	 0.707875 	 0.686063 	  
 -6.491251 	 4.018781 	 2.598405 	 0.830125 	 0.709625 	 0.687000 	  
 0.708486 	 3.628926 	 3.848141 	 0.827625 	 0.707813 	 0.686312 	  
 7.735303 	 4.949402 	 4.791338 	 0.830250 	 0.709875 	 0.687000 	  
 9.881076 	 6.760340 	 3.942461 	 0.827438 	 0.707750 	 0.686312 	  
 5.762449 	 6.169270 	 2.354746 	 0.829688 	 0.710063 	 0.686750 	  
 0.087548 	 5.238649 	 2.551245 	 0.827562 	 0.708375 	 0.688000 	  
 0.865685 	 4.257724 	 -2.966457 	 0.830813 	 0.709375 	 0.686250 	  
 8.065422 	 4.496667 	 -2.667778 	 0.827000 	 0.708875 	 0.688188 	  
 14.282662 	 5.490168 	 -4.546312 	 0.829313 	 0.708688 	 0.686063 	  
 18.770707 	 6.810644 	 -6.880724 	 0.827125 	 0.710000 	 0.688125 	  
 19.085106 	 5.628504 	 -1.252982 	 0.829625 	 0.708438 	 0.686250 	  
 15.343758 	 4.496667 	 1.765248 	 0.827750 	 0.710375 	 0.688250 	  
 11.838210 	 4.232572 	 4.948538 	 0.827937 	 0.708250 	 0.686063 	  
 12.828566 	 3.314527 	 5.184337 	 0.826937 	 0.710063 	 0.688250 	  
 17.607431 	 2.824065 	 7.738829 	 0.827063 	 0.708500 	 0.686188 	  
 20.531342 	 2.824065 	 6.740612 	 0.828125 	 0.710187 	 0.687937 	  
 20.727841 	 3.528318 	 7.683809 	 0.827375 	 0.708250 	 0.686250 	  
 19.698184 	 5.490168 	 7.958908 	 0.826937 	 0.710250 	 0.688125 	  
 14.919320 	 7.477170 	 1.560889 	 0.828688 	 0.708313 	 0.686063 	  
 9.220838 	 6.295029 	 1.592328 	 0.828500 	 0.710125 	 0.688125 	  
 8.419121 	 4.823642 	 3.557322 	 0.828937 	 0.707937 	 0.686250 	  
 13.363045 	 4.697883 	 3.950321 	 0.830313 	 0.710187 	 0.687625 	  
 16.349835 	 6.345333 	 3.423703 	 0.828125 	 0.708000 	 0.686063 	  
 14.872160 	 6.559125 	 2.904944 	 0.827125 	 0.710063 	 0.688250 	  
 10.525594 	 5.339256 	 6.009634 	 0.827375 	 0.708063 	 0.686125 	  
 7.043625 	 5.050009 	 3.321523 	 0.828500 	 0.709937 	 0.687813 	  
 5.888209 	 7.929904 	 4.885658 	 0.826562 	 0.707875 	 0.686125 	  
 8.159742 	 9.552203 	 6.921391 	 0.826000 	 0.709937 	 0.688125 	  
 10.800693 	 8.445518 	 2.315446 	 0.826750 	 0.708063 	 0.686125 	  
 12.152609 	 6.986707 	 4.343320 	 0.826000 	 0.709813 	 0.688000 	  
 10.824273 	 7.489745 	 5.341536 	 0.825000 	 0.707937 	 0.686125 	  
 6.359807 	 8.370063 	 6.009634 	 0.827125 	 0.709750 	 0.687312 	  
 0.111128 	 7.602929 	 1.812408 	 0.824875 	 0.707688 	 0.686125 	  
 -1.555187 	 6.659732 	 3.415843 	 0.826250 	 0.709813 	 0.688000 	  
 1.958222 	 6.886099 	 2.810625 	 0.825375 	 0.707937 	 0.686063 	  
 5.848909 	 7.867024 	 4.508379 	 0.827750 	 0.709875 	 0.687125 	  
 8.018262 	 7.867024 	 3.470862 	 0.824187 	 0.708250 	 0.686500 	  
 7.931802 	 7.665809 	 3.447282 	 0.826500 	 0.710187 	 0.686688 	  
 4.441974 	 7.741265 	 4.626279 	 0.826125 	 0.708375 	 0.688063 	  
 -1.327248 	 7.024435 	 6.536252 	 0.829562 	 0.709625 	 0.686312 	  
 -1.256508 	 7.087315 	 3.690942 	 0.826313 	 0.708562 	 0.688063 	  
 7.672423 	 7.552625 	 0.185393 	 0.828813 	 0.708875 	 0.686250 	  
 14.699240 	 8.445518 	 -1.818901 	 0.825813 	 0.709625 	 0.688188 	  
 14.927180 	 7.942480 	 0.814191 	 0.828562 	 0.708500 	 0.686125 	  
 11.327311 	 6.257301 	 -0.097566 	 0.825688 	 0.710125 	 0.688188 	  
 5.110071 	 5.100313 	 1.718088 	 0.828187 	 0.708500 	 0.686125 	  
 1.125064 	 4.811066 	 1.435129 	 0.824813 	 0.710313 	 0.688125 	  
 4.237614 	 6.471093 	 2.999264 	 0.826125 	 0.709000 	 0.686188 	  
 12.584907 	 8.307183 	 2.590545 	 0.825313 	 0.710375 	 0.688188 	  
 17.481671 	 8.332335 	 1.906727 	 0.823625 	 0.708313 	 0.686063 	  
 16.192636 	 8.005360 	 4.272580 	 0.824187 	 0.710313 	 0.688063 	  
 11.940389 	 8.998861 	 1.898867 	 0.824375 	 0.708375 	 0.686250 	  
 7.719583 	 9.577355 	 3.235063 	 0.826000 	 0.710187 	 0.687500 	  
 5.801749 	 9.099468 	 4.359039 	 0.823562 	 0.707813 	 0.686188 	  
 9.040059 	 9.112044 	 4.327600 	 0.823937 	 0.710125 	 0.688250 	  
 12.765687 	 10.696615 	 1.670928 	 0.823313 	 0.708063 	 0.686188 	  
 14.754260 	 9.489323 	 2.488366 	 0.826250 	 0.710000 	 0.687375 	  
 13.347325 	 6.559125 	 1.804548 	 0.824500 	 0.708187 	 0.686125 	  
 8.796400 	 3.716958 	 3.942461 	 0.826187 	 0.710125 	 0.688000 	  
 3.042898 	 3.767262 	 2.181827 	 0.827500 	 0.707750 	 0.686063 	  
 1.117204 	 5.414712 	 0.531232 	 0.829313 	 0.709562 	 0.687562 	  
 4.001815 	 5.867447 	 1.175750 	 0.827313 	 0.708063 	 0.686063 	  
 9.417338 	 5.829719 	 2.236846 	 0.827813 	 0.710000 	 0.687937 	  
 12.074009 	 6.747764 	 3.549462 	 0.827500 	 0.707875 	 0.686188 	  
 11.602410 	 7.552625 	 3.926741 	 0.826813 	 0.709875 	 0.688000 	  
 6.697786 	 7.942480 	 7.062871 	 0.826250 	 0.707875 	 0.686000 	  
 1.219384 	 8.458094 	 7.723109 	 0.827688 	 0.709750 	 0.687625 	  
 1.360864 	 9.916906 	 5.530176 	 0.825937 	 0.708187 	 0.686063 	  
 9.055779 	 10.243881 	 5.931034 	 0.827250 	 0.710000 	 0.687813 	  
 15.673877 	 10.520552 	 7.880308 	 0.825688 	 0.708063 	 0.686125 	  
 16.279095 	 10.847527 	 3.565182 	 0.826438 	 0.710187 	 0.687500 	  
 11.610270 	 10.193577 	 0.578392 	 0.825313 	 0.708313 	 0.686438 	  
 4.504853 	 7.414290 	 -1.928940 	 0.827813 	 0.710000 	 0.686750 	  
 0.244747 	 5.703959 	 1.372249 	 0.825000 	 0.708250 	 0.688063 	  
 3.585236 	 5.829719 	 3.125023 	 0.828313 	 0.709688 	 0.686250 	  
 12.482728 	 6.295029 	 1.529449 	 0.825438 	 0.708438 	 0.688125 	  
 18.299109 	 5.829719 	 -0.451265 	 0.829438 	 0.708875 	 0.686250 	  
 16.734974 	 6.332757 	 -0.474845 	 0.827375 	 0.709562 	 0.688063 	  
 11.665290 	 7.854448 	 1.175750 	 0.829187 	 0.708625 	 0.686125 	  
 6.281208 	 7.527473 	 0.358312 	 0.827063 	 0.710313 	 0.688250 	  
 1.541643 	 5.817143 	 1.930307 	 0.829813 	 0.708625 	 0.686188 	  
 1.470903 	 4.936826 	 5.034997 	 0.827063 	 0.710187 	 0.688000 	  
 8.293361 	 5.880023 	 6.944971 	 0.828625 	 0.708438 	 0.686250 	  
 14.172622 	 7.338834 	 5.844575 	 0.827375 	 0.710187 	 0.688188 	  
 13.551684 	 7.577777 	 6.638432 	 0.828438 	 0.708125 	 0.686063 	  
 9.244418 	 6.760340 	 5.726675 	 0.827187 	 0.710375 	 0.688250 	  
 3.593096 	 7.565201 	 5.577336 	 0.827875 	 0.708438 	 0.686125 	  
 0.488406 	 8.935981 	 2.331166 	 0.826125 	 0.710438 	 0.688188 	  
 4.984312 	 9.388715 	 0.201113 	 0.826562 	 0.708625 	 0.686188 	  
 13.881803 	 9.338412 	 -1.111503 	 0.828063 	 0.710438 	 0.687750 	  
 18.935767 	 8.596430 	 1.835988 	 0.827500 	 0.708562 	 0.686125 	  
 16.892173 	 6.886099 	 4.657719 	 0.827187 	 0.710375 	 0.688188 	  
 11.248712 	 6.471093 	 3.863861 	 0.826875 	 0.708875 	 0.686063 	  
 7.208685 	 7.841872 	 3.486582 	 0.828187 	 0.710562 	 0.687562 	  
 7.334444 	 8.935981 	 2.001047 	 0.826562 	 0.708500 	 0.686188 	  
 13.976123 	 8.709614 	 4.524099 	 0.826187 	 0.710500 	 0.688125 	  
 19.666744 	 8.910829 	 6.221853 	 0.826875 	 0.708375 	 0.686063 	  
 20.271962 	 8.407791 	 3.966041 	 0.827688 	 0.710125 	 0.687813 	  
 16.341975 	 7.452018 	 0.845631 	 0.826688 	 0.708688 	 0.686125 	  
 10.690653 	 6.445941 	 -1.795321 	 0.825937 	 0.710438 	 0.688063 	  
 6.650626 	 5.452440 	 -0.073986 	 0.827000 	 0.708625 	 0.686125 	  
 6.171168 	 5.653655 	 -1.308002 	 0.828000 	 0.710500 	 0.687688 	  
 10.038275 	 6.005782 	 0.672711 	 0.826875 	 0.708562 	 0.686063 	  
 14.699240 	 5.515320 	 0.224693 	 0.829375 	 0.710688 	 0.686875 	  
 14.620641 	 4.471515 	 -0.584885 	 0.825937 	 0.708688 	 0.687250 	  
 11.948249 	 3.654078 	 0.837771 	 0.829063 	 0.710688 	 0.686375 	  
 6.579887 	 4.119388 	 2.897084 	 0.826937 	 0.708562 	 0.688063 	  
 3.475197 	 3.151040 	 5.616635 	 0.829375 	 0.710125 	 0.686375 	  
 6.438407 	 2.673153 	 4.351180 	 0.826625 	 0.709187 	 0.688063 	  
 12.584907 	 1.767684 	 2.189687 	 0.829625 	 0.709187 	 0.686188 	  
 16.286955 	 2.069507 	 2.118947 	 0.826750 	 0.710500 	 0.688125 	  
 14.785700 	 2.232995 	 1.631628 	 0.830750 	 0.708937 	 0.686250 	  
 8.985039 	 2.786337 	 -1.535941 	 0.827625 	 0.710625 	 0.688188 	  
 0.881405 	 3.955901 	 -1.040763 	 0.829750 	 0.708625 	 0.686250 	  
 -3.873879 	 6.081238 	 1.977467 	 0.827875 	 0.710875 	 0.688125 	  
 -0.761330 	 6.219574 	 2.142527 	 0.829063 	 0.708500 	 0.686125 	  
 7.295144 	 6.005782 	 2.079647 	 0.828375 	 0.710500 	 0.688250 	  
 12.820706 	 6.974131 	 3.109304 	 0.828625 	 0.708500 	 0.686125 	  
 11.437351 	 7.804144 	 7.125751 	 0.830313 	 0.710375 	 0.687500 	  
 5.251551 	 8.370063 	 7.117891 	 0.828500 	 0.708500 	 0.686188 	  
 -1.091448 	 8.231727 	 2.747745 	 0.828875 	 0.710938 	 0.688125 	  
 -3.866019 	 8.759917 	 4.539819 	 0.829250 	 0.708750 	 0.686063 	  
 1.911062 	 8.923405 	 3.675222 	 0.829937 	 0.710688 	 0.687750 	  
 8.890719 	 8.583854 	 4.193980 	 0.826625 	 0.708688 	 0.686250 	  
 8.537020 	 6.697460 	 3.761681 	 0.827562 	 0.710562 	 0.688000 	  
 4.261194 	 4.647579 	 4.547679 	 0.827500 	 0.708688 	 0.686188 	  
 0.370507 	 5.226073 	 -0.050406 	 0.828813 	 0.710750 	 0.687188 	  
 -4.974276 	 7.791569 	 5.003557 	 0.827125 	 0.708438 	 0.686125 	  
 -5.312255 	 8.873101 	 0.287573 	 0.829000 	 0.710313 	 0.687500 	  
 0.284047 	 8.206575 	 4.162540 	 0.827000 	 0.708187 	 0.686125 	  
 5.833189 	 7.728689 	 2.511945 	 0.828750 	 0.710125 	 0.687875 	  
 7.067205 	 6.886099 	 5.011417 	 0.828125 	 0.708187 	 0.686063 	  
 5.636690 	 5.892599 	 3.007124 	 0.828125 	 0.710250 	 0.688063 	  
 0.787085 	 5.729111 	 7.306530 	 0.828250 	 0.708438 	 0.686063 	  
 -1.696667 	 6.295029 	 6.158974 	 0.829438 	 0.709937 	 0.687000 	  
 1.573083 	 7.301106 	 6.308313 	 0.826500 	 0.708375 	 0.686438 	  
 8.851419 	 5.968054 	 5.490876 	 0.829313 	 0.710313 	 0.686813 	  
 14.471301 	 4.609851 	 2.590545 	 0.827250 	 0.708438 	 0.687937 	  
 14.738540 	 4.458939 	 -4.318372 	 0.829875 	 0.710125 	 0.686375 	  
 9.283718 	 5.238649 	 -0.522005 	 0.828063 	 0.708688 	 0.688125 	  
 3.915355 	 4.597275 	 5.034997 	 0.831000 	 0.708813 	 0.686188 	  
 2.980018 	 4.987130 	 9.963201 	 0.827500 	 0.710250 	 0.688125 	  
 9.118658 	 7.024435 	 9.365843 	 0.830625 	 0.708562 	 0.686125 	  
 17.520971 	 8.621582 	 7.990348 	 0.827937 	 0.710438 	 0.688250 	  
 20.358422 	 9.929482 	 4.728458 	 0.830125 	 0.708813 	 0.686250 	  
 17.843230 	 9.401291 	 5.027137 	 0.827937 	 0.710375 	 0.688250 	  
 14.502741 	 7.841872 	 7.078591 	 0.830625 	 0.708562 	 0.686188 	  
 11.398051 	 7.351410 	 2.566965 	 0.828438 	 0.710375 	 0.688250 	  
 10.643494 	 7.904752 	 1.773108 	 0.829375 	 0.708688 	 0.686188 	  
 14.754260 	 8.193999 	 2.228986 	 0.829125 	 0.710313 	 0.688063 	  
 19.446665 	 7.565201 	 3.525882 	 0.829125 	 0.708250 	 0.686375 	  
 20.963640 	 7.854448 	 0.554812 	 0.830313 	 0.710375 	 0.688000 	  
 17.984710 	 7.301106 	 -3.948954 	 0.830125 	 0.708313 	 0.686000 	  
 11.720310 	 6.722612 	 -3.367315 	 0.832313 	 0.710063 	 0.687375 	  
 5.188671 	 6.219574 	 0.955671 	 0.829875 	 0.708313 	 0.686375 	  
 6.925726 	 6.269877 	 1.325089 	 0.831937 	 0.710187 	 0.687750 	  
 15.084379 	 7.187922 	 4.044641 	 0.830438 	 0.708250 	 0.686125 	  
 19.077246 	 7.150195 	 7.007851 	 0.830187 	 0.710438 	 0.688188 	  
 18.527048 	 6.860948 	 5.137177 	 0.830250 	 0.708562 	 0.686125 	  
 16.758554 	 7.829296 	 6.842791 	 0.831500 	 0.710250 	 0.687688 	  
 11.531671 	 10.118121 	 6.221853 	 0.829875 	 0.708125 	 0.686250 	  
 4.913572 	 10.608583 	 4.618419 	 0.829813 	 0.710187 	 0.688125 	  
 4.465554 	 9.388715 	 3.368683 	 0.830000 	 0.708313 	 0.686125 	  
 10.918593 	 8.407791 	 1.042130 	 0.831562 	 0.710000 	 0.687562 	  
 15.265159 	 7.867024 	 -1.308002 	 0.829813 	 0.708187 	 0.686063 	  
 15.060799 	 7.213074 	 -2.722798 	 0.830000 	 0.710125 	 0.688188 	  
 10.486294 	 6.747764 	 -1.779601 	 0.829500 	 0.708187 	 0.686125 	  
 3.396597 	 4.295452 	 -1.284422 	 0.831750 	 0.710187 	 0.687063 	  
 -1.272228 	 1.214342 	 -0.301925 	 0.829187 	 0.708313 	 0.686688 	  
 3.773876 	 1.717380 	 0.240413 	 0.831937 	 0.710500 	 0.686813 	  
 11.350891 	 5.276377 	 1.615908 	 0.829250 	 0.708625 	 0.687937 	  
 13.528104 	 6.974131 	 2.904944 	 0.831937 	 0.709875 	 0.686312 	  
 10.682793 	 6.433365 	 3.235063 	 0.829562 	 0.708813 	 0.688188 	  
 7.303004 	 5.477592 	 2.559105 	 0.832500 	 0.708937 	 0.686250 	  
 4.025395 	 4.848794 	 1.175750 	 0.829063 	 0.710438 	 0.688188 	  
 2.272621 	 5.251225 	 4.225420 	 0.831187 	 0.708438 	 0.686188 	  
 7.145805 	 6.118966 	 -0.553445 	 0.829250 	 0.710313 	 0.688312 	  
 13.748183 	 6.156694 	 3.926741 	 0.830438 	 0.708250 	 0.686125 	  
 16.176916 	 6.471093 	 1.230770 	 0.831375 	 0.710250 	 0.688000 	  
 13.669584 	 8.093392 	 4.492659 	 0.829375 	 0.708438 	 0.686125 	  
 9.857496 	 8.873101 	 4.233280 	 0.831250 	 0.710313 	 0.687500 	  
 5.636690 	 8.684462 	 6.575552 	 0.828625 	 0.708438 	 0.686250 	  
 5.550230 	 7.602929 	 7.424430 	 0.829375 	 0.710438 	 0.688125 	  
 11.476651 	 8.005360 	 3.345103 	 0.828187 	 0.708250 	 0.686125 	  
 17.104393 	 8.671886 	 3.620202 	 0.831500 	 0.710250 	 0.687188 	  
 17.913970 	 8.017936 	 4.822778 	 0.829375 	 0.708500 	 0.686250 	  
 13.080086 	 6.986707 	 2.291866 	 0.831625 	 0.710375 	 0.687750 	  
 3.821036 	 7.011859 	 4.099660 	 0.830375 	 0.708750 	 0.686250 	  
 -2.404064 	 6.974131 	 4.697018 	 0.829688 	 0.710500 	 0.688312 	  
 -0.431211 	 6.420789 	 5.931034 	 0.829937 	 0.708750 	 0.686188 	  
 9.881076 	 8.319759 	 4.021061 	 0.831750 	 0.710375 	 0.687438 	  
 15.178699 	 9.665386 	 2.401906 	 0.829937 	 0.708625 	 0.686250 	  
 12.946466 	 8.709614 	 3.612342 	 0.830438 	 0.710438 	 0.688188 	  
 6.815686 	 8.005360 	 2.637705 	 0.829500 	 0.708500 	 0.686000 	  
 -0.006772 	 7.640657 	 4.689158 	 0.831375 	 0.710313 	 0.687312 	  
 -6.019653 	 8.470670 	 4.319740 	 0.829125 	 0.708875 	 0.686063 	  
 -4.086099 	 9.791146 	 8.454086 	 0.829875 	 0.710500 	 0.687875 	  
 4.654193 	 9.539627 	 8.100387 	 0.829187 	 0.708438 	 0.686188 	  
 11.350891 	 8.546126 	 0.939951 	 0.828625 	 0.710438 	 0.688188 	  
 12.278368 	 9.124620 	 -2.667778 	 0.829250 	 0.708625 	 0.686188 	  
 12.042569 	 10.432520 	 0.366172 	 0.831063 	 0.710375 	 0.687188 	  
 9.511657 	 11.237381 	 3.800981 	 0.828813 	 0.708438 	 0.686125 	  
 6.996465 	 10.067817 	 3.918881 	 0.831375 	 0.710562 	 0.687188 	  
 7.499504 	 8.231727 	 5.239357 	 0.828813 	 0.708688 	 0.686813 	  
 12.797127 	 7.389138 	 5.891735 	 0.831625 	 0.711000 	 0.686500 	  
 16.876453 	 7.062163 	 5.160757 	 0.827500 	 0.708813 	 0.688000 	  
 14.958620 	 4.609851 	 4.830638 	 0.829063 	 0.709875 	 0.686250 	  
 9.354458 	 4.635003 	 3.282223 	 0.825250 	 0.709375 	 0.688188 	  
 3.388737 	 5.666231 	 1.175750 	 0.827500 	 0.709562 	 0.686250 	  
 0.551286 	 6.093814 	 -0.742084 	 0.825937 	 0.710562 	 0.688250 	  
 5.510930 	 5.112889 	 -4.703511 	 0.827625 	 0.709000 	 0.686312 	  
 12.522027 	 4.848794 	 -2.054700 	 0.827562 	 0.710375 	 0.688188 	  
 16.082596 	 6.043510 	 -2.518438 	 0.828562 	 0.708625 	 0.686312 	  
 14.180482 	 6.169270 	 0.075353 	 0.829250 	 0.710938 	 0.688063 	  
 8.450561 	 6.923827 	 1.930307 	 0.828063 	 0.708625 	 0.686125 	  
 2.689199 	 8.005360 	 4.979977 	 0.829625 	 0.710438 	 0.687500 	  
 4.261194 	 8.747341 	 4.319740 	 0.827000 	 0.708562 	 0.686250 	  
 14.321962 	 8.344911 	 5.742395 	 0.827438 	 0.710813 	 0.688125 	  
 22.496335 	 7.690961 	 -0.411965 	 0.826375 	 0.708688 	 0.686063 	  
 24.948647 	 6.483669 	 2.637705 	 0.827625 	 0.710750 	 0.687312 	  
 21.836097 	 5.439864 	 -1.677421 	 0.825562 	 0.708688 	 0.686250 	  
 12.144749 	 4.735610 	 4.775618 	 0.827250 	 0.710813 	 0.687500 	  
 1.966082 	 4.182268 	 6.056794 	 0.825688 	 0.708937 	 0.686188 	  
 1.297984 	 3.804989 	 3.282223 	 0.825937 	 0.710750 	 0.688188 	  
 6.194748 	 3.415135 	 5.349396 	 0.825875 	 0.708688 	 0.686250 	  
 7.978962 	 3.804989 	 5.483016 	 0.827750 	 0.710875 	 0.687562 	  
 6.013969 	 5.213497 	 5.365116 	 0.825750 	 0.708937 	 0.686125 	  
 3.506637 	 6.332757 	 4.091800 	 0.826375 	 0.711000 	 0.688125 	  
 -1.366548 	 6.156694 	 4.697018 	 0.825625 	 0.708937 	 0.686250 	  
 -4.369058 	 6.420789 	 4.052500 	 0.828063 	 0.711000 	 0.687625 	  
 -1.484447 	 6.508821 	 -4.789971 	 0.827125 	 0.708937 	 0.686125 	  
 3.742436 	 5.729111 	 -2.062560 	 0.828125 	 0.710562 	 0.687562 	  
 5.290851 	 6.483669 	 0.649132 	 0.827625 	 0.708937 	 0.686000 	  
 6.807826 	 7.992784 	 0.012474 	 0.829625 	 0.710813 	 0.687312 	  
 6.682066 	 8.470670 	 -0.176166 	 0.827500 	 0.708750 	 0.686188 	  
 4.214034 	 8.734765 	 -0.537725 	 0.828813 	 0.710688 	 0.687312 	  
 1.525923 	 8.734765 	 0.822051 	 0.826750 	 0.708937 	 0.686625 	  
 4.135435 	 6.483669 	 0.240413 	 0.828937 	 0.710750 	 0.686625 	  
 9.008619 	 4.559547 	 -1.630261 	 0.826000 	 0.709250 	 0.688250 	  
 15.225859 	 4.144540 	 4.885658 	 0.828750 	 0.709750 	 0.686188 	  
 17.497391 	 5.439864 	 5.341536 	 0.826063 	 0.711000 	 0.688312 	  
 12.907166 	 6.634580 	 4.359039 	 0.828438 	 0.709562 	 0.686188 	  
 5.636690 	 6.974131 	 5.946754 	 0.825250 	 0.711000 	 0.688125 	  
 5.927509 	 6.760340 	 6.324033 	 0.827625 	 0.709250 	 0.686375 	  
 15.029359 	 6.835796 	 8.344047 	 0.825313 	 0.711063 	 0.688250 	  
 22.519915 	 7.703537 	 11.008578 	 0.826750 	 0.709063 	 0.686188 	  
 23.730351 	 7.628081 	 1.946027 	 0.824875 	 0.710938 	 0.688312 	  
 18.409148 	 7.552625 	 -0.852124 	 0.826125 	 0.708937 	 0.686250 	  
 11.963969 	 8.256879 	 -2.526298 	 0.825937 	 0.710875 	 0.688063 	  
 7.020045 	 9.728266 	 4.681298 	 0.825187 	 0.708875 	 0.686125 	  
 6.941446 	 9.715690 	 1.615908 	 0.827438 	 0.710750 	 0.687375 	  
 11.586690 	 8.961133 	 2.142527 	 0.825937 	 0.708625 	 0.686063 	  
 13.976123 	 7.514897 	 1.773108 	 0.827250 	 0.710750 	 0.687688 	  
 11.005052 	 5.905175 	 0.185393 	 0.825750 	 0.708750 	 0.686188 	  
 6.634907 	 4.572123 	 0.020334 	 0.826313 	 0.710938 	 0.688125 	  
 1.070045 	 4.383484 	 -0.003246 	 0.825375 	 0.708750 	 0.686250 	  
 -0.022492 	 3.993629 	 2.496226 	 0.826937 	 0.710938 	 0.686937 	  
 3.899635 	 4.635003 	 3.989621 	 0.825063 	 0.708937 	 0.686500 	  
 7.978962 	 6.986707 	 2.189687 	 0.828750 	 0.710750 	 0.687063 	  
 9.189398 	 9.350987 	 4.311880 	 0.825438 	 0.709125 	 0.686375 	  
 8.340521 	 9.589931 	 5.553756 	 0.828313 	 0.710813 	 0.687188 	  
 3.066478 	 9.300684 	 6.127534 	 0.826562 	 0.708750 	 0.686125 	  
 -2.804923 	 8.709614 	 3.840281 	 0.828875 	 0.710750 	 0.688000 	  
 -4.203998 	 8.483246 	 5.310096 	 0.828250 	 0.708625 	 0.686063 	  
 1.856042 	 7.376562 	 4.586979 	 0.830375 	 0.710438 	 0.686937 	  
 6.257628 	 7.917328 	 4.752038 	 0.828813 	 0.708562 	 0.686438 	  
 9.095079 	 8.621582 	 5.270797 	 0.831313 	 0.710562 	 0.687562 	  
 10.038275 	 9.275532 	 3.282223 	 0.829875 	 0.708562 	 0.686063 	  
 7.939662 	 8.885677 	 4.217560 	 0.832000 	 0.710625 	 0.687125 	  
 4.237614 	 7.414290 	 2.158247 	 0.829125 	 0.709125 	 0.687188 	  
 6.446267 	 5.565624 	 2.684865 	 0.831937 	 0.711250 	 0.686625 	  
 15.328038 	 4.974554 	 -1.779601 	 0.828937 	 0.709187 	 0.688250 	  
 21.765358 	 3.515742 	 0.185393 	 0.832063 	 0.710125 	 0.686312 	  
 22.967934 	 1.591621 	 1.505869 	 0.829063 	 0.710938 	 0.688125 	  
 21.167999 	 1.604197 	 3.219343 	 0.831813 	 0.709500 	 0.686250 	  
 17.293032 	 3.628926 	 5.184337 	 0.829063 	 0.711250 	 0.688312 	  
 13.897523 	 5.565624 	 4.516239 	 0.831125 	 0.709250 	 0.686063 	  
 16.947193 	 6.974131 	 4.123240 	 0.828937 	 0.711063 	 0.688312 	  
 23.856111 	 7.867024 	 3.541602 	 0.830375 	 0.709250 	 0.686250 	  
 27.888278 	 7.200498 	 0.696291 	 0.829625 	 0.711250 	 0.688188 	  
 26.646402 	 7.489745 	 4.838498 	 0.829937 	 0.709438 	 0.686188 	  
 19.588145 	 8.747341 	 3.305803 	 0.831187 	 0.711250 	 0.687813 	  
 10.179755 	 9.024013 	 5.286516 	 0.830562 	 0.709250 	 0.686000 	  
 4.465554 	 8.105968 	 7.369410 	 0.829750 	 0.711000 	 0.688188 	  
 6.572027 	 7.929904 	 8.226147 	 0.829813 	 0.709313 	 0.686188 	  
 11.201552 	 8.382639 	 5.176477 	 0.829562 	 0.711000 	 0.688125 	  
 12.231208 	 7.892176 	 4.964258 	 0.829250 	 0.708625 	 0.686125 	  
 8.631340 	 5.842295 	 1.946027 	 0.831562 	 0.710750 	 0.687500 	  
 2.893559 	 4.987130 	 4.524099 	 0.829125 	 0.709000 	 0.686250 	  
 -2.663443 	 6.257301 	 1.639488 	 0.830625 	 0.711063 	 0.687937 	  
 -1.901026 	 7.414290 	 2.118947 	 0.829625 	 0.709250 	 0.686188 	  
 6.925726 	 5.791991 	 0.979250 	 0.829000 	 0.711438 	 0.688188 	  
 12.341248 	 5.226073 	 -2.856417 	 0.829688 	 0.709438 	 0.686063 	  
 11.893229 	 6.508821 	 -2.777817 	 0.831187 	 0.711187 	 0.687562 	  
 7.892502 	 7.024435 	 -1.292282 	 0.828875 	 0.709187 	 0.686125 	  
 0.260467 	 5.817143 	 -1.111503 	 0.830000 	 0.711125 	 0.687875 	  
 -7.921766 	 4.458939 	 0.688431 	 0.828125 	 0.709125 	 0.686188 	  
 -7.756707 	 3.918173 	 2.834204 	 0.830125 	 0.711000 	 0.687813 	  
 1.227244 	 2.861792 	 2.409766 	 0.829187 	 0.708937 	 0.686000 	  
 7.719583 	 2.195267 	 3.494442 	 0.829500 	 0.710875 	 0.688188 	  
 7.216545 	 2.748609 	 4.406199 	 0.829000 	 0.709063 	 0.686125 	  
 3.388737 	 3.830141 	 3.360823 	 0.831562 	 0.710875 	 0.687125 	  
 -1.673087 	 5.238649 	 1.073570 	 0.828875 	 0.709000 	 0.686438 	  
 -5.084316 	 4.848794 	 1.222910 	 0.831500 	 0.711313 	 0.686625 	  
 -2.183985 	 4.949402 	 -1.064343 	 0.828875 	 0.709438 	 0.688125 	  
 7.303004 	 4.773338 	 -0.702784 	 0.831937 	 0.710250 	 0.686250 	  
 14.125462 	 4.219996 	 -0.294065 	 0.828438 	 0.710938 	 0.688188 	  
 14.400561 	 2.685729 	 0.059633 	 0.831250 	 0.709625 	 0.686125 	  
 10.195475 	 1.880868 	 5.404416 	 0.828375 	 0.711187 	 0.688250 	  
 3.931075 	 2.811489 	 6.221853 	 0.829500 	 0.709625 	 0.686250 	  
 2.201881 	 5.414712 	 3.643782 	 0.828625 	 0.711438 	 0.688250 	  
 9.008619 	 7.552625 	 4.123240 	 0.829438 	 0.709562 	 0.686188 	  
 17.167272 	 6.420789 	 4.162540 	 0.830875 	 0.711375 	 0.688063 	  
 19.423085 	 4.433787 	 3.533742 	 0.829562 	 0.709625 	 0.686125 	  
 17.198712 	 3.943325 	 4.421919 	 0.831875 	 0.711438 	 0.687312 	  
 11.209412 	 3.804989 	 6.151114 	 0.828875 	 0.709562 	 0.686312 	  
 6.257628 	 3.528318 	 6.048934 	 0.828500 	 0.711500 	 0.688188 	  
 6.619187 	 4.370908 	 5.207917 	 0.828813 	 0.709500 	 0.686125 	  
 13.583124 	 5.741687 	 2.661285 	 0.829875 	 0.711000 	 0.687750 	  
 18.063310 	 6.043510 	 1.741668 	 0.828313 	 0.708937 	 0.686125 	  
 16.797854 	 5.590776 	 0.507652 	 0.827813 	 0.711063 	 0.688125 	  
 11.728170 	 5.402136 	 0.735591 	 0.827000 	 0.708875 	 0.686312 	  
 7.798183 	 7.175347 	 -1.740301 	 0.829313 	 0.711000 	 0.687875 	  
 4.237614 	 9.413867 	 -6.456285 	 0.827937 	 0.708750 	 0.686188 	  
 3.317997 	 8.961133 	 -4.907871 	 0.828187 	 0.710813 	 0.687937 	  
 4.803532 	 7.024435 	 -3.359456 	 0.827000 	 0.708813 	 0.686125 	  
 7.892502 	 5.678807 	 0.594112 	 0.830375 	 0.710750 	 0.687937 	  
 8.647060 	 7.376562 	 10.136121 	 0.828500 	 0.708750 	 0.686250 	  
 7.295144 	 11.187078 	 8.454086 	 0.828375 	 0.711000 	 0.688250 	  
 4.662053 	 13.589086 	 9.750982 	 0.828500 	 0.708937 	 0.686125 	  
 1.934642 	 13.727421 	 6.999991 	 0.829688 	 0.710813 	 0.687750 	  
 3.349437 	 13.249535 	 2.173967 	 0.828313 	 0.708937 	 0.686125 	  
 6.713506 	 12.532705 	 -0.152586 	 0.827813 	 0.710688 	 0.688125 	  
 6.234048 	 11.551780 	 4.697018 	 0.827625 	 0.708875 	 0.686000 	  
 4.575593 	 10.231305 	 3.046424 	 0.829313 	 0.711125 	 0.687750 	  
 3.695276 	 9.992361 	 2.166107 	 0.827375 	 0.709000 	 0.686063 	  
 1.415883 	 10.822375 	 3.148603 	 0.828937 	 0.711063 	 0.687250 	  
 0.331207 	 13.840605 	 2.323306 	 0.826688 	 0.709250 	 0.686750 	  
 6.917866 	 15.991094 	 1.340809 	 0.829500 	 0.711375 	 0.686562 	  
 14.832860 	 16.066550 	 0.751311 	 0.826375 	 0.709125 	 0.688250 	  
 17.245872 	 14.896986 	 2.134667 	 0.829187 	 0.710313 	 0.686375 	  
 15.681737 	 13.249535 	 0.947811 	 0.826438 	 0.709750 	 0.688250 	  
 10.219055 	 9.879178 	 1.608048 	 0.829375 	 0.709750 	 0.686188 	  
 4.504853 	 8.193999 	 3.541602 	 0.826125 	 0.711313 	 0.688375 	  
 5.683850 	 9.112044 	 1.065710 	 0.829125 	 0.709688 	 0.686312 	  
 14.534181 	 9.828874 	 1.246490 	 0.826750 	 0.711438 	 0.688250 	  
 21.042240 	 8.961133 	 0.939951 	 0.828562 	 0.709375 	 0.686312 	  
 20.067603 	 9.162348 	 4.728458 	 0.826313 	 0.711375 	 0.688188 	  
 13.253005 	 10.621159 	 2.794905 	 0.826750 	 0.709250 	 0.686250 	  
 6.265488 	 11.061318 	 3.934601 	 0.825187 	 0.710625 	 0.688250 	  
 2.634179 	 10.822375 	 6.166834 	 0.826625 	 0.709187 	 0.686125 	  
 4.300494 	 10.897830 	 3.903161 	 0.826438 	 0.711000 	 0.688312 	  
 9.967536 	 10.797223 	 3.329383 	 0.826250 	 0.709063 	 0.686312 	  
 15.854657 	 9.677962 	 3.667362 	 0.826688 	 0.711000 	 0.688063 	  
 17.324472 	 8.483246 	 6.520532 	 0.825937 	 0.709187 	 0.686188 	  
 12.970046 	 7.263378 	 5.372976 	 0.827250 	 0.711000 	 0.688000 	  
 7.601683 	 7.250802 	 2.606265 	 0.825813 	 0.709187 	 0.686125 	  
 4.520573 	 7.464594 	 4.579119 	 0.829063 	 0.711000 	 0.687125 	  
 7.145805 	 7.389138 	 3.132883 	 0.825688 	 0.709063 	 0.686312 	  
 13.803203 	 7.590353 	 4.068220 	 0.827625 	 0.711125 	 0.687813 	  
 17.072953 	 9.225228 	 2.920664 	 0.826500 	 0.708937 	 0.686063 	  
 16.074736 	 8.646734 	 3.518022 	 0.825562 	 0.710875 	 0.688250 	  
 10.588474 	 6.156694 	 3.478722 	 0.826125 	 0.709000 	 0.686375 	  
 4.937152 	 4.873946 	 0.987110 	 0.826688 	 0.710562 	 0.688000 	  
 3.373017 	 4.144540 	 2.842064 	 0.825937 	 0.708625 	 0.686125 	  
 9.865356 	 2.937248 	 2.339026 	 0.827625 	 0.710562 	 0.687625 	  
 18.361989 	 4.018781 	 3.911021 	 0.826063 	 0.708813 	 0.686125 	  
 20.397722 	 5.641079 	 4.814918 	 0.826438 	 0.710750 	 0.687937 	  
 17.811790 	 6.433365 	 2.409766 	 0.825625 	 0.708937 	 0.686250 	  
 14.149042 	 6.873523 	 1.419409 	 0.826937 	 0.711063 	 0.687750 	  
 7.491644 	 6.722612 	 0.924231 	 0.825125 	 0.709313 	 0.686312 	  
 4.292634 	 4.710458 	 0.413332 	 0.829250 	 0.711313 	 0.687125 	  
 9.480217 	 2.585121 	 1.254350 	 0.825750 	 0.709250 	 0.687500 	  
 14.942900 	 0.661000 	 4.217560 	 0.829125 	 0.711187 	 0.686688 	  
 16.161196 	 -0.458261 	 1.222910 	 0.825063 	 0.709313 	 0.688250 	  
 14.801420 	 -1.426610 	 0.578392 	 0.828438 	 0.710688 	 0.686438 	  
 10.910733 	 -1.552369 	 -1.017183 	 0.825688 	 0.709125 	 0.688063 	  
 6.006109 	 -1.904496 	 0.311153 	 0.828125 	 0.710500 	 0.686438 	  
 6.603467 	 -0.093558 	 -0.396245 	 0.825000 	 0.709937 	 0.688312 	  
 12.522027 	 0.635848 	 0.554812 	 0.827875 	 0.709562 	 0.686250 	  
 14.117602 	 0.422056 	 1.277929 	 0.824937 	 0.710688 	 0.688375 	  
 11.162252 	 0.044778 	 -0.553445 	 0.828187 	 0.709813 	 0.686375 	  
 8.261921 	 1.113734 	 3.486582 	 0.825937 	 0.711063 	 0.688125 	  
 6.186888 	 2.232995 	 4.359039 	 0.827625 	 0.709250 	 0.686375 	  
 1.730282 	 3.415135 	 2.331166 	 0.824875 	 0.711187 	 0.688250 	  
 0.464826 	 2.509666 	 9.169344 	 0.827250 	 0.709500 	 0.686188 	  
 5.369451 	 0.962823 	 6.889951 	 0.824813 	 0.710813 	 0.688250 	  
 10.478434 	 0.157961 	 5.820995 	 0.826688 	 0.709375 	 0.686312 	  
 11.232992 	 1.541317 	 1.482289 	 0.825250 	 0.711187 	 0.688312 	  
 7.939662 	 4.785914 	 -1.135083 	 0.826625 	 0.708937 	 0.686250 	  
 3.475197 	 5.163193 	 2.787045 	 0.826063 	 0.711500 	 0.688312 	  
 0.268327 	 4.207420 	 4.359039 	 0.826187 	 0.709313 	 0.686250 	  
 3.365157 	 4.647579 	 6.229713 	 0.827000 	 0.711375 	 0.688063 	  
 10.619914 	 6.684884 	 1.796688 	 0.825813 	 0.709438 	 0.686250 	  
 16.373415 	 7.665809 	 -1.520221 	 0.829562 	 0.711313 	 0.687562 	  
 14.950760 	 6.835796 	 -4.239773 	 0.827688 	 0.709313 	 0.686125 	  
 5.062912 	 4.987130 	 -0.789244 	 0.828250 	 0.711313 	 0.688250 	  
 -5.610934 	 4.106812 	 0.523372 	 0.827813 	 0.709125 	 0.686125 	  
 -5.595214 	 6.131542 	 2.449066 	 0.829187 	 0.711063 	 0.687063 	  
 3.333717 	 8.332335 	 3.093584 	 0.825688 	 0.709125 	 0.686375 	  
 9.747456 	 8.105968 	 6.033214 	 0.827875 	 0.711000 	 0.687500 	  
 10.470574 	 7.929904 	 6.064654 	 0.825750 	 0.709000 	 0.686125 	  
 8.230481 	 8.131119 	 7.204350 	 0.827875 	 0.710875 	 0.687500 	  
 3.600956 	 9.527051 	 2.810625 	 0.825250 	 0.709250 	 0.686562 	  
 -0.824209 	 10.457672 	 -0.710644 	 0.827937 	 0.711250 	 0.686625 	  
 -1.201488 	 9.854026 	 -4.687791 	 0.824063 	 0.709625 	 0.688312 	  
 3.640256 	 7.401714 	 -3.823194 	 0.827375 	 0.710125 	 0.686250 	  
 8.277641 	 6.056086 	 1.254350 	 0.825375 	 0.711313 	 0.688250 	  
 8.819979 	 7.150195 	 1.317229 	 0.828125 	 0.709500 	 0.686375 	  
 5.212251 	 9.149772 	 6.253293 	 0.826313 	 0.711438 	 0.688375 	  
 0.802805 	 8.432942 	 3.407983 	 0.827750 	 0.709375 	 0.686188 	  
 -1.673087 	 7.338834 	 3.195763 	 0.828125 	 0.711375 	 0.688188 	  
 1.337284 	 8.118543 	 3.973901 	 0.827500 	 0.709688 	 0.686188 	  
 7.986822 	 8.684462 	 6.096094 	 0.830063 	 0.711250 	 0.687625 	  
 12.097589 	 9.300684 	 6.096094 	 0.827750 	 0.709500 	 0.686312 	  
 12.223348 	 9.979785 	 6.929251 	 0.828562 	 0.711500 	 0.688312 	  
 10.360534 	 10.168425 	 8.611286 	 0.828375 	 0.709438 	 0.686250 	  
 7.200825 	 9.049164 	 7.337970 	 0.829438 	 0.711187 	 0.688063 	  
 5.424470 	 8.131119 	 7.078591 	 0.828187 	 0.709438 	 0.686250 	  
 10.195475 	 8.873101 	 6.606992 	 0.830375 	 0.711438 	 0.687188 	  
 15.516678 	 10.482824 	 7.165050 	 0.828063 	 0.709562 	 0.686250 	  
 15.508818 	 11.375717 	 6.402633 	 0.828937 	 0.711438 	 0.688250 	  
 10.376254 	 11.287685 	 7.172910 	 0.828375 	 0.709688 	 0.686250 	  
 5.385171 	 12.281186 	 4.288300 	 0.829750 	 0.711562 	 0.687750 	  
 -0.549110 	 13.375294 	 4.311880 	 0.827875 	 0.709438 	 0.686250 	  
 -3.142902 	 12.193154 	 5.255077 	 0.827937 	 0.711438 	 0.688312 	  
 2.791379 	 10.596007 	 4.028921 	 0.827750 	 0.709313 	 0.686312 	  
 10.635634 	 10.583431 	 4.492659 	 0.827625 	 0.711375 	 0.688188 	  
 13.410205 	 11.061318 	 4.170400 	 0.826125 	 0.709562 	 0.686188 	  
 11.618130 	 9.942058 	 6.386913 	 0.827937 	 0.711313 	 0.687813 	  
 8.387681 	 8.596430 	 4.822778 	 0.825688 	 0.709500 	 0.686188 	  
 5.078632 	 6.659732 	 -1.968240 	 0.825875 	 0.711313 	 0.688250 	  
 5.927509 	 4.760762 	 -2.117580 	 0.826875 	 0.709500 	 0.686250 	  
 15.618857 	 5.276377 	 -0.066126 	 0.827063 	 0.711375 	 0.688063 	  
 24.461329 	 7.326258 	 2.221126 	 0.826187 	 0.709438 	 0.686188 	  
 27.015821 	 8.269455 	 4.932818 	 0.828688 	 0.711438 	 0.687125 	  
 25.247326 	 9.024013 	 2.551245 	 0.826688 	 0.709375 	 0.686625 	  
 20.790721 	 9.527051 	 1.262210 	 0.829625 	 0.711750 	 0.686813 	  
 17.371632 	 8.357487 	 0.460492 	 0.826688 	 0.709750 	 0.688063 	  
 21.144420 	 7.351410 	 0.429052 	 0.829750 	 0.711000 	 0.686500 	  
 27.455979 	 7.414290 	 4.563399 	 0.826875 	 0.710125 	 0.688312 	  
 29.696072 	 6.232150 	 1.631628 	 0.829937 	 0.710813 	 0.686375 	  
 26.229823 	 6.131542 	 0.342592 	 0.827250 	 0.710250 	 0.688438 	  
 19.729624 	 6.986707 	 1.820268 	 0.830250 	 0.710250 	 0.686250 	  
 13.881803 	 6.785492 	 3.502302 	 0.827688 	 0.711063 	 0.688188 	  
 11.005052 	 5.477592 	 1.906727 	 0.830500 	 0.709813 	 0.686375 	  
 12.089729 	 5.263801 	 -0.018966 	 0.827125 	 0.711250 	 0.688312 	  
 15.854657 	 5.452440 	 1.938167 	 0.830500 	 0.709875 	 0.686188 	  
 17.151552 	 5.628504 	 -2.557738 	 0.827500 	 0.711438 	 0.688250 	  
 13.315885 	 4.811066 	 -0.899283 	 0.829688 	 0.709813 	 0.686375 	  
 5.361591 	 2.723457 	 -2.659918 	 0.826688 	 0.711438 	 0.688188 	  
 -2.058225 	 0.598120 	 -1.158663 	 0.828438 	 0.709375 	 0.686188 	  
 -3.598780 	 0.157961 	 -2.966457 	 0.826750 	 0.711438 	 0.688312 	  
 -0.038212 	 1.579045 	 0.617692 	 0.827875 	 0.709313 	 0.686188 	  
 3.805316 	 2.949824 	 -0.757804 	 0.828187 	 0.711625 	 0.688000 	  
 4.882132 	 3.037856 	 0.342592 	 0.827000 	 0.709750 	 0.686250 	  
 3.475197 	 2.119811 	 1.694508 	 0.829438 	 0.711438 	 0.687438 	  
 0.024668 	 2.006627 	 0.523372 	 0.826937 	 0.709438 	 0.686250 	  
 -4.919256 	 2.031779 	 1.906727 	 0.828500 	 0.711187 	 0.687937 	  
 -5.351555 	 2.471938 	 1.466569 	 0.827187 	 0.709313 	 0.686250 	  
 1.549503 	 2.710881 	 3.502302 	 0.827688 	 0.711250 	 0.688125 	  
 7.106505 	 2.396482 	 2.134667 	 0.826688 	 0.709375 	 0.686250 	  
 8.277641 	 3.603774 	 2.181827 	 0.829000 	 0.711187 	 0.687250 	  
 4.528433 	 4.936826 	 4.209700 	 0.826625 	 0.709125 	 0.686125 	  
 -1.492307 	 4.723034 	 5.451576 	 0.828187 	 0.710938 	 0.687937 	  
 -5.210075 	 4.433787 	 4.979977 	 0.827125 	 0.709000 	 0.686250 	  
 -2.529824 	 4.836218 	 4.429779 	 0.826625 	 0.711125 	 0.688188 	  
 2.728499 	 5.502744 	 3.659502 	 0.826313 	 0.709375 	 0.686250 	  
 7.318724 	 4.521819 	 3.384403 	 0.829438 	 0.711250 	 0.687188 	  
 8.654920 	 3.930749 	 2.842064 	 0.826125 	 0.709187 	 0.686688 	  
 8.277641 	 4.408635 	 0.798471 	 0.829500 	 0.711438 	 0.686813 	  
 3.215818 	 5.754263 	 0.546952 	 0.827500 	 0.709562 	 0.688250 	  
 0.653466 	 6.307605 	 -2.400539 	 0.830313 	 0.710438 	 0.686312 	  
 5.172951 	 5.238649 	 1.513729 	 0.826937 	 0.711313 	 0.688438 	  
 10.486294 	 4.207420 	 3.313663 	 0.829937 	 0.710063 	 0.686312 	  
 12.883586 	 5.678807 	 2.834204 	 0.826750 	 0.711875 	 0.688312 	  
 12.820706 	 8.445518 	 4.068220 	 0.828063 	 0.709813 	 0.686375 	  
 10.305515 	 11.262533 	 2.221126 	 0.827250 	 0.711750 	 0.688250 	  
 5.919649 	 12.998016 	 2.236846 	 0.827750 	 0.709625 	 0.686188 	  
 6.886426 	 12.859680 	 5.137177 	 0.828937 	 0.711500 	 0.687875 	  
 14.133322 	 11.488901 	 3.290083 	 0.827750 	 0.709500 	 0.686250 	  
 18.802147 	 11.073894 	 5.294376 	 0.827937 	 0.711375 	 0.688250 	  
 18.684248 	 11.979363 	 7.951048 	 0.827375 	 0.709375 	 0.686375 	  
 15.815357 	 12.369218 	 8.689885 	 0.829187 	 0.711438 	 0.687688 	  
 10.533454 	 13.060895 	 9.295104 	 0.827937 	 0.709500 	 0.686188 	  
 5.400891 	 13.299839 	 6.489093 	 0.828813 	 0.711250 	 0.688375 	  
 4.748513 	 13.236959 	 1.938167 	 0.829500 	 0.709313 	 0.686250 	  
 11.806770 	 13.362718 	 5.097877 	 0.829500 	 0.711375 	 0.688125 	  
 16.923613 	 13.576510 	 5.074297 	 0.828500 	 0.709187 	 0.686188 	  
 17.002213 	 13.953789 	 6.269013 	 0.830375 	 0.711313 	 0.687562 	  
 12.812847 	 15.110777 	 6.166834 	 0.828313 	 0.709063 	 0.686188 	  
 6.650626 	 14.481979 	 6.127534 	 0.829562 	 0.711125 	 0.687937 	  
 2.311921 	 12.784224 	 7.463729 	 0.829125 	 0.709125 	 0.686250 	  
 5.628830 	 13.123775 	 5.891735 	 0.827750 	 0.711063 	 0.688375 	  
 12.325528 	 15.299416 	 8.925685 	 0.829500 	 0.709125 	 0.686250 	  
 13.425925 	 14.808954 	 6.834931 	 0.827500 	 0.711125 	 0.688375 	  
 10.124735 	 12.834528 	 2.559105 	 0.828500 	 0.709438 	 0.686125 	  
 7.342304 	 10.482824 	 0.122513 	 0.828187 	 0.710688 	 0.688125 	  
 2.437680 	 8.885677 	 0.366172 	 0.827750 	 0.709250 	 0.686188 	  
 -2.215425 	 7.502321 	 1.175750 	 0.830063 	 0.711000 	 0.687500 	  
 1.486623 	 6.219574 	 3.612342 	 0.827500 	 0.709125 	 0.686188 	  
 10.502014 	 4.836218 	 5.545896 	 0.828250 	 0.711125 	 0.688125 	  
 14.510601 	 4.697883 	 3.785261 	 0.827125 	 0.709250 	 0.686250 	  
 12.349108 	 5.163193 	 -1.740301 	 0.829937 	 0.711125 	 0.686875 	  
 7.444484 	 5.251225 	 -0.757804 	 0.826750 	 0.709438 	 0.687500 	  
 0.574866 	 4.031357 	 -0.435545 	 0.829937 	 0.711438 	 0.686562 	  
 -1.846006 	 2.371330 	 1.710228 	 0.827438 	 0.709625 	 0.688188 	  
 5.809609 	 1.415557 	 -0.553445 	 0.830125 	 0.710187 	 0.686375 	  
 14.565621 	 1.566469 	 -0.301925 	 0.827000 	 0.711313 	 0.688312 	  
 17.866810 	 1.252070 	 0.020334 	 0.830000 	 0.710063 	 0.686250 	  
 15.461658 	 1.453285 	 -0.396245 	 0.826813 	 0.711562 	 0.688375 	  
 11.256572 	 3.025280 	 0.617692 	 0.830625 	 0.709750 	 0.686250 	  
 8.482001 	 5.578200 	 -3.021477 	 0.828250 	 0.711562 	 0.688250 	  
 8.348381 	 5.163193 	 -1.268702 	 0.828813 	 0.709562 	 0.686312 	  
 14.282662 	 3.151040 	 -0.451265 	 0.828375 	 0.711500 	 0.688438 	  
 20.814301 	 2.673153 	 -0.553445 	 0.829313 	 0.709500 	 0.686188 	  
 22.519915 	 2.283298 	 1.183610 	 0.829562 	 0.711063 	 0.688063 	  
 18.810007 	 2.383906 	 1.670928 	 0.828250 	 0.709313 	 0.686375 	  
 12.372688 	 3.415135 	 0.114653 	 0.830750 	 0.711500 	 0.687500 	  
 5.306571 	 4.936826 	 0.712011 	 0.828875 	 0.709000 	 0.686188 	  
 4.968592 	 4.609851 	 -1.142943 	 0.830000 	 0.711438 	 0.688312 	  
 11.500231 	 3.779838 	 0.829911 	 0.828875 	 0.709562 	 0.686312 	  
 17.120113 	 3.465439 	 -2.259059 	 0.831187 	 0.711625 	 0.687125 	  
 15.155119 	 3.389983 	 2.142527 	 0.827375 	 0.709438 	 0.686813 	  
 9.841776 	 3.654078 	 1.820268 	 0.830000 	 0.711500 	 0.687250 	  
 5.149371 	 5.037433 	 2.842064 	 0.827750 	 0.709375 	 0.686063 	  
 3.773876 	 5.138041 	 2.511945 	 0.830063 	 0.711500 	 0.687875 	  
 6.493427 	 5.012282 	 4.814918 	 0.828625 	 0.709250 	 0.686250 	  
 12.294088 	 6.068662 	 5.420136 	 0.829438 	 0.711125 	 0.688125 	  
 13.378765 	 7.464594 	 7.235790 	 0.828313 	 0.709063 	 0.686188 	  
 11.005052 	 9.514475 	 5.105737 	 0.830063 	 0.711125 	 0.687875 	  
 6.234048 	 8.282031 	 4.869938 	 0.828500 	 0.708937 	 0.686063 	  
 -0.462651 	 5.565624 	 4.359039 	 0.828937 	 0.711000 	 0.688312 	  
 -1.783126 	 3.779838 	 7.636649 	 0.828313 	 0.709187 	 0.686125 	  
 5.015752 	 3.804989 	 4.704878 	 0.830937 	 0.711000 	 0.687250 	  
 10.557034 	 4.974554 	 4.193980 	 0.828187 	 0.709063 	 0.686250 	  
 11.649570 	 5.376984 	 0.696291 	 0.830875 	 0.711250 	 0.687125 	  
 9.378038 	 5.175769 	 4.146820 	 0.828063 	 0.709313 	 0.687625 	  
 5.110071 	 4.861370 	 4.138960 	 0.831000 	 0.711063 	 0.686500 	  
 -0.910669 	 5.112889 	 2.417626 	 0.828063 	 0.709375 	 0.688250 	  
 -1.445147 	 4.119388 	 0.374032 	 0.831125 	 0.710313 	 0.686375 	  
 4.945012 	 4.609851 	 2.763465 	 0.828063 	 0.711562 	 0.688250 	  
 11.641710 	 6.269877 	 6.929251 	 0.830813 	 0.709562 	 0.686375 	  
 13.842503 	 8.420366 	 5.097877 	 0.828438 	 0.711125 	 0.688188 	  
 10.179755 	 8.068240 	 2.394046 	 0.830937 	 0.709500 	 0.686250 	  
 4.465554 	 7.162771 	 5.765975 	 0.828562 	 0.711625 	 0.688375 	  
 0.134708 	 6.571700 	 4.437639 	 0.830000 	 0.709750 	 0.686250 	  
 1.871762 	 6.584276 	 2.543385 	 0.829000 	 0.711250 	 0.688250 	  
 8.041842 	 7.867024 	 2.354746 	 0.829875 	 0.709313 	 0.686312 	  
 13.543824 	 8.558702 	 1.623768 	 0.829562 	 0.711313 	 0.688312 	  
 14.746400 	 7.137619 	 3.698802 	 0.829625 	 0.709438 	 0.686250 	  
 11.901089 	 6.169270 	 3.769541 	 0.831750 	 0.711438 	 0.687375 	  
 6.076848 	 8.093392 	 6.646292 	 0.829250 	 0.709375 	 0.686375 	  
 3.506637 	 10.092969 	 8.501246 	 0.829438 	 0.711438 	 0.688375 	  
 8.128302 	 10.596007 	 3.148603 	 0.829438 	 0.709750 	 0.686375 	  
 14.164762 	 10.218729 	 3.455142 	 0.829625 	 0.711562 	 0.688188 	  
 14.180482 	 8.860525 	 2.936384 	 0.829063 	 0.709813 	 0.686188 	  
 10.957893 	 8.684462 	 5.278657 	 0.831250 	 0.711500 	 0.687562 	  
 5.298711 	 9.174924 	 1.576609 	 0.829125 	 0.709937 	 0.686375 	  
 -0.556970 	 8.697038 	 1.639488 	 0.829125 	 0.711375 	 0.688375 	  
 0.417667 	 8.432942 	 1.615908 	 0.829187 	 0.709375 	 0.686312 	  
 10.824273 	 8.722190 	 -0.922863 	 0.831625 	 0.711562 	 0.687438 	  
 17.410932 	 10.294184 	 -1.559521 	 0.829375 	 0.709438 	 0.686188 	  
 16.389135 	 10.306760 	 1.325089 	 0.831500 	 0.711187 	 0.687500 	  
 10.132595 	 10.269032 	 0.916371 	 0.828375 	 0.709313 	 0.686188 	  
 3.766016 	 10.470248 	 0.845631 	 0.831313 	 0.711438 	 0.687562 	  
 -1.798846 	 11.061318 	 3.588762 	 0.829875 	 0.709187 	 0.686063 	  
 -1.531607 	 10.294184 	 3.046424 	 0.830187 	 0.711375 	 0.688125 	  
 5.448050 	 9.112044 	 2.480506 	 0.829438 	 0.709500 	 0.686250 	  
 11.885370 	 8.722190 	 5.687375 	 0.831813 	 0.711375 	 0.686937 	  
 12.891446 	 9.250380 	 5.750255 	 0.829125 	 0.709625 	 0.688063 	  
 10.462714 	 10.055241 	 3.415843 	 0.831937 	 0.711375 	 0.686438 	  
 5.990389 	 9.879178 	 5.113597 	 0.828875 	 0.709625 	 0.688250 	  
 2.076121 	 8.533550 	 5.231497 	 0.832125 	 0.709875 	 0.686438 	  
 5.157231 	 8.131119 	 1.348669 	 0.829125 	 0.711438 	 0.688312 	  
 12.891446 	 8.533550 	 0.036053 	 0.831813 	 0.709750 	 0.686250 	  
 17.080813 	 7.967632 	 -1.740301 	 0.828750 	 0.711438 	 0.688312 	  
 16.357695 	 7.099891 	 -1.252982 	 0.830937 	 0.709625 	 0.686188 	  
 13.103666 	 5.024857 	 1.191470 	 0.829250 	 0.711375 	 0.688312 	  
 7.428764 	 3.654078 	 4.822778 	 0.829813 	 0.709375 	 0.686312 	  
 4.677773 	 4.484091 	 4.610559 	 0.829937 	 0.711562 	 0.688312 	  
 10.910733 	 6.559125 	 4.421919 	 0.829813 	 0.709562 	 0.686250 	  
 19.273746 	 7.150195 	 2.834204 	 0.831125 	 0.711625 	 0.687813 	  
 22.126916 	 7.011859 	 3.565182 	 0.829688 	 0.709438 	 0.686312 	  
 19.957563 	 7.489745 	 3.808841 	 0.829500 	 0.711438 	 0.688312 	  
 13.127245 	 8.193999 	 5.577336 	 0.829937 	 0.709313 	 0.686375 	  
 5.282991 	 7.024435 	 5.074297 	 0.830187 	 0.711375 	 0.688188 	  
 2.689199 	 5.716535 	 3.667362 	 0.829937 	 0.709500 	 0.686250 	  
 8.576320 	 5.703959 	 0.020334 	 0.831438 	 0.711500 	 0.687750 	  
 13.866083 	 6.081238 	 -1.370882 	 0.829438 	 0.709500 	 0.686250 	  
 15.076519 	 5.213497 	 2.315446 	 0.829375 	 0.711438 	 0.688312 	  
 10.824273 	 5.741687 	 2.637705 	 0.829750 	 0.709313 	 0.686188 	  
 5.094352 	 7.200498 	 7.565909 	 0.830250 	 0.711750 	 0.688188 	  
 0.661326 	 7.477170 	 6.308313 	 0.829438 	 0.709562 	 0.686188 	  
 2.083981 	 6.609428 	 6.033214 	 0.830125 	 0.711313 	 0.688125 	  
 9.865356 	 5.641079 	 2.826344 	 0.829250 	 0.709500 	 0.686250 	  
 14.164762 	 5.024857 	 -2.911437 	 0.831438 	 0.711375 	 0.687188 	  
 12.907166 	 5.917751 	 -5.096510 	 0.829125 	 0.709438 	 0.686188 	  
 9.951816 	 6.370485 	 -2.699218 	 0.830688 	 0.711375 	 0.688063 	  
 5.361591 	 6.295029 	 -0.411965 	 0.829000 	 0.709750 	 0.686125 	  
 0.881405 	 5.263801 	 5.168617 	 0.831375 	 0.711375 	 0.687063 	  
 2.689199 	 5.200921 	 2.063927 	 0.828500 	 0.709438 	 0.686500 	  
 9.488077 	 4.987130 	 0.122513 	 0.831375 	 0.711438 	 0.687125 	  
 12.561327 	 4.333180 	 0.939951 	 0.828688 	 0.709375 	 0.686813 	  
 11.633850 	 1.880868 	 3.745961 	 0.831438 	 0.711500 	 0.686688 	  
 10.470574 	 1.742532 	 4.280440 	 0.828375 	 0.710000 	 0.688250 	  
 10.478434 	 2.723457 	 3.463002 	 0.831375 	 0.710750 	 0.686375 	  
 9.983256 	 3.113312 	 -2.196179 	 0.828250 	 0.710562 	 0.688375 	  
 13.017206 	 1.667076 	 -4.475572 	 0.831625 	 0.710438 	 0.686250 	  
 16.326255 	 0.271145 	 -4.216193 	 0.828750 	 0.711813 	 0.688312 	  
 16.538474 	 -0.269621 	 -5.646708 	 0.830937 	 0.710000 	 0.686438 	  
 14.133322 	 0.824487 	 -5.371609 	 0.828438 	 0.712063 	 0.688500 	  
 10.148315 	 0.510088 	 -0.003246 	 0.829875 	 0.709813 	 0.686188 	  
 5.275131 	 -1.703281 	 1.859568 	 0.829250 	 0.711750 	 0.688375 	  
 6.226188 	 -1.464338 	 1.529449 	 0.828625 	 0.710063 	 0.686250 	  
 14.384841 	 1.239494 	 5.074297 	 0.830750 	 0.711813 	 0.688125 	  
 19.981143 	 4.383484 	 5.797415 	 0.828438 	 0.709750 	 0.686250 	  
 21.796797 	 6.408213 	 1.553029 	 0.830813 	 0.711938 	 0.687937 	  
 18.802147 	 8.445518 	 1.851708 	 0.829063 	 0.709813 	 0.686250 	  
 10.777113 	 9.552203 	 1.828128 	 0.828937 	 0.711688 	 0.688250 	  
 2.587020 	 8.269455 	 1.765248 	 0.828750 	 0.709937 	 0.686375 	  
 2.044681 	 6.948979 	 4.744178 	 0.831375 	 0.712063 	 0.687438 	  
 7.161525 	 7.225650 	 3.989621 	 0.828937 	 0.709813 	 0.686188 	  
 10.234775 	 7.628081 	 4.272580 	 0.830250 	 0.711875 	 0.688250 	  
 10.557034 	 8.269455 	 7.408710 	 0.828813 	 0.710125 	 0.686375 	  
 8.371961 	 9.413867 	 4.178260 	 0.829750 	 0.711875 	 0.688000 	  
 3.200098 	 11.073894 	 3.635922 	 0.828375 	 0.709937 	 0.686375 	  
 -1.602347 	 11.073894 	 5.993914 	 0.830750 	 0.711875 	 0.687000 	  
 -1.193628 	 10.658887 	 3.407983 	 0.828000 	 0.709562 	 0.686500 	  
 4.166875 	 10.256457 	 4.948538 	 0.830313 	 0.711875 	 0.687500 	  
 8.458421 	 9.426443 	 5.742395 	 0.828500 	 0.710000 	 0.686250 	  
 7.900362 	 8.219151 	 9.082884 	 0.829562 	 0.711750 	 0.688063 	  
 1.918922 	 7.049587 	 7.290810 	 0.828125 	 0.710125 	 0.686375 	  
 -5.013576 	 7.011859 	 4.531959 	 0.830438 	 0.711875 	 0.687375 	  
 -7.984646 	 8.244303 	 5.946754 	 0.828250 	 0.709750 	 0.686125 	  
 -2.930683 	 9.501899 	 6.041074 	 0.830000 	 0.712250 	 0.687750 	  
 4.889992 	 10.822375 	 4.421919 	 0.827875 	 0.710500 	 0.686500 	  
 8.851419 	 10.809799 	 5.687375 	 0.830750 	 0.712438 	 0.687000 	  
 8.741380 	 10.407368 	 3.580902 	 0.827750 	 0.710250 	 0.688375 	  
 7.067205 	 9.162348 	 6.913531 	 0.830562 	 0.711813 	 0.686438 	  
 6.061128 	 7.753841 	 4.500519 	 0.827750 	 0.710500 	 0.688312 	  
 8.340521 	 7.150195 	 4.531959 	 0.830313 	 0.711438 	 0.686500 	  
 15.728897 	 8.017936 	 2.158247 	 0.827438 	 0.710625 	 0.688438 	  
 20.664961 	 8.659310 	 1.301509 	 0.830313 	 0.710875 	 0.686250 	  
 20.570641 	 8.294607 	 -3.304436 	 0.827562 	 0.711313 	 0.688438 	  
 16.546334 	 6.496245 	 -1.889640 	 0.829500 	 0.711000 	 0.686500 	  
 10.164035 	 5.515320 	 0.279713 	 0.826625 	 0.711875 	 0.688312 	  
 5.070772 	 6.634580 	 3.415843 	 0.828625 	 0.710625 	 0.686375 	  
 5.510930 	 9.137196 	 5.797415 	 0.826187 	 0.712000 	 0.688625 	  
 11.971829 	 11.011014 	 5.506596 	 0.828063 	 0.710313 	 0.686188 	  
 18.707827 	 11.589508 	 3.973901 	 0.825875 	 0.712063 	 0.688500 	  
 18.181209 	 10.105545 	 2.409766 	 0.828438 	 0.710375 	 0.686375 	  
 13.127245 	 8.621582 	 5.388696 	 0.827063 	 0.712000 	 0.688438 	  
 8.780680 	 9.187500 	 3.400123 	 0.828063 	 0.710187 	 0.686250 	  
 7.130085 	 11.149350 	 0.939951 	 0.825937 	 0.712375 	 0.688562 	  
 8.442701 	 10.181001 	 -0.616324 	 0.827375 	 0.710438 	 0.686250 	  
 12.191909 	 5.439864 	 -1.685281 	 0.827187 	 0.712250 	 0.688438 	  
 12.435568 	 2.094659 	 -2.251199 	 0.826937 	 0.710438 	 0.686375 	  
 8.254061 	 1.541317 	 1.741668 	 0.828875 	 0.712375 	 0.687625 	  
 3.608816 	 1.402981 	 3.148603 	 0.827375 	 0.710125 	 0.686188 	  
 -0.533390 	 2.710881 	 5.750255 	 0.826875 	 0.712313 	 0.688438 	  
 -3.842440 	 4.509243 	 9.578063 	 0.827625 	 0.710438 	 0.686063 	  
 -0.006772 	 5.087737 	 8.469806 	 0.828125 	 0.712125 	 0.688188 	  
 4.945012 	 4.836218 	 4.390479 	 0.827438 	 0.710187 	 0.686250 	  
 4.331934 	 5.791991 	 2.103227 	 0.828438 	 0.711938 	 0.688125 	  
 2.862119 	 7.162771 	 -1.142943 	 0.826813 	 0.710063 	 0.686188 	  
 1.934642 	 7.326258 	 -0.207606 	 0.828500 	 0.711688 	 0.687562 	  
 -2.270445 	 6.370485 	 -2.243339 	 0.826250 	 0.710187 	 0.686250 	  
 -5.744553 	 4.333180 	 -0.435545 	 0.828937 	 0.711938 	 0.687438 	  
 -2.246865 	 3.037856 	 -0.003246 	 0.827250 	 0.709937 	 0.686312 	  
 4.882132 	 4.056509 	 2.708445 	 0.829250 	 0.712187 	 0.687188 	  
 9.786756 	 5.138041 	 -1.528081 	 0.827250 	 0.710125 	 0.687750 	  
 12.317668 	 4.911674 	 -0.223326 	 0.829688 	 0.711250 	 0.686500 	  
 11.091512 	 3.880445 	 0.319013 	 0.826625 	 0.710750 	 0.688312 	  
 7.145805 	 3.402559 	 1.985327 	 0.829688 	 0.710875 	 0.686250 	  
 6.068988 	 5.075161 	 1.010690 	 0.826500 	 0.711875 	 0.688375 	  
 11.201552 	 6.823220 	 -2.494858 	 0.829562 	 0.710562 	 0.686438 	  
 17.395212 	 8.256879 	 -3.288716 	 0.826438 	 0.712187 	 0.688438 	  
 19.336625 	 8.873101 	 0.091073 	 0.829063 	 0.710438 	 0.686312 	  
 16.145476 	 7.929904 	 3.258643 	 0.826937 	 0.712375 	 0.688500 	  
 10.344815 	 6.848372 	 8.344047 	 0.829063 	 0.710562 	 0.686250 	  
 7.845343 	 8.043088 	 7.778128 	 0.827187 	 0.712125 	 0.688500 	  
 12.789267 	 10.646311 	 2.865644 	 0.829063 	 0.710250 	 0.686312 	  
 21.380219 	 12.708769 	 2.559105 	 0.827937 	 0.712125 	 0.688500 	  
 26.174803 	 12.796800 	 1.883148 	 0.828375 	 0.710063 	 0.686250 	  
 22.747854 	 10.520552 	 3.447282 	 0.827688 	 0.712250 	 0.688562 	  
 14.620641 	 9.514475 	 5.317956 	 0.827562 	 0.710438 	 0.686188 	  
 7.169385 	 10.168425 	 3.926741 	 0.827688 	 0.712313 	 0.688312 	  
 4.599173 	 10.973286 	 3.533742 	 0.827250 	 0.710562 	 0.686375 	  
 10.682793 	 11.627236 	 4.068220 	 0.829500 	 0.712375 	 0.688063 	  
 19.273746 	 12.683617 	 3.667362 	 0.827438 	 0.710313 	 0.686188 	  
 21.867537 	 12.972864 	 5.781695 	 0.829500 	 0.712250 	 0.687750 	  
 18.008290 	 12.432097 	 5.192197 	 0.826750 	 0.710562 	 0.686250 	  
 12.789267 	 11.438597 	 3.895301 	 0.827813 	 0.712250 	 0.688375 	  
 7.696003 	 10.721767 	 3.282223 	 0.827000 	 0.710250 	 0.686188 	  
 7.688143 	 11.815875 	 1.835988 	 0.829500 	 0.712562 	 0.687937 	  
 12.804987 	 13.299839 	 2.095367 	 0.828562 	 0.710500 	 0.686125 	  
 14.046863 	 12.230882 	 3.856001 	 0.828250 	 0.712313 	 0.688438 	  
 10.564894 	 10.243881 	 -0.089706 	 0.828562 	 0.710125 	 0.686250 	  
 7.177245 	 8.395215 	 1.851708 	 0.829750 	 0.712187 	 0.688000 	  
 2.366940 	 7.125043 	 2.590545 	 0.827375 	 0.710187 	 0.686250 	  
 -2.097525 	 6.521397 	 3.470862 	 0.829625 	 0.712500 	 0.687188 	  
 -0.242571 	 7.540049 	 4.524099 	 0.826625 	 0.710063 	 0.687000 	  
 7.782463 	 7.326258 	 3.038564 	 0.828375 	 0.712000 	 0.687063 	  
 11.853930 	 6.345333 	 2.213266 	 0.826375 	 0.710250 	 0.688000 	  
 12.003269 	 4.949402 	 1.042130 	 0.829250 	 0.711125 	 0.686312 	  
 9.668857 	 3.465439 	 0.570532 	 0.825625 	 0.710938 	 0.688375 	  
 4.308354 	 2.484514 	 3.525882 	 0.828625 	 0.710938 	 0.686438 	  
 -0.894949 	 2.182691 	 2.024627 	 0.825750 	 0.712375 	 0.688500 	  
 -0.588410 	 1.314949 	 1.828128 	 0.828000 	 0.710438 	 0.686500 	  
 6.312648 	 1.126310 	 2.967824 	 0.826813 	 0.712375 	 0.688438 	  
 11.264432 	 2.484514 	 2.197546 	 0.828375 	 0.710313 	 0.686250 	  
 11.162252 	 4.056509 	 3.510162 	 0.826875 	 0.712625 	 0.688625 	  
 9.212978 	 3.163616 	 1.545169 	 0.827750 	 0.710562 	 0.686375 	  
 4.496993 	 1.340101 	 1.906727 	 0.828562 	 0.712625 	 0.688312 	  
 1.533783 	 0.799335 	 2.221126 	 0.827625 	 0.710313 	 0.686312 	  
 5.487350 	 0.547816 	 2.126807 	 0.829187 	 0.712250 	 0.687625 	  
 11.775330 	 1.390405 	 1.537309 	 0.827750 	 0.710375 	 0.686312 	  
 14.384841 	 1.931171 	 2.849924 	 0.829250 	 0.712500 	 0.687937 	  
 12.435568 	 0.749031 	 2.692725 	 0.827438 	 0.710562 	 0.686312 	  
 8.222621 	 0.120233 	 4.979977 	 0.827313 	 0.712500 	 0.688500 	  
 2.932859 	 0.937671 	 3.934601 	 0.827438 	 0.710438 	 0.686250 	  
 2.390520 	 2.308450 	 5.042857 	 0.829500 	 0.712313 	 0.688063 	  
 8.018262 	 2.761185 	 6.229713 	 0.826875 	 0.710187 	 0.686500 	  
 15.430218 	 2.270722 	 5.090017 	 0.829250 	 0.712063 	 0.687188 	  
 19.564565 	 2.912096 	 5.129317 	 0.826813 	 0.710063 	 0.686438 	  
 16.365555 	 4.031357 	 5.844575 	 0.828313 	 0.712125 	 0.688125 	  
 8.387681 	 4.999706 	 2.276146 	 0.827813 	 0.709688 	 0.686125 	  
 2.445540 	 5.917751 	 3.856001 	 0.829750 	 0.711688 	 0.687312 	  
 3.113638 	 7.062163 	 5.695235 	 0.827875 	 0.709937 	 0.686188 	  
 10.454854 	 7.363986 	 6.520532 	 0.829562 	 0.711562 	 0.688063 	  
 14.707100 	 7.477170 	 4.869938 	 0.827562 	 0.709313 	 0.686250 	  
 15.563838 	 7.854448 	 2.260426 	 0.830125 	 0.711438 	 0.687500 	  
 12.058289 	 7.401714 	 3.054284 	 0.828000 	 0.709500 	 0.686188 	  
 2.932859 	 6.798068 	 3.659502 	 0.829500 	 0.711438 	 0.687750 	  
 -4.439798 	 7.967632 	 4.421919 	 0.828000 	 0.709875 	 0.686188 	  
 -0.203271 	 8.722190 	 2.063927 	 0.830000 	 0.712000 	 0.687438 	  
 9.417338 	 7.527473 	 3.722382 	 0.827562 	 0.709625 	 0.686750 	  
 14.094022 	 6.307605 	 2.323306 	 0.830250 	 0.712000 	 0.686937 	  
 12.985766 	 6.232150 	 3.117164 	 0.827438 	 0.709813 	 0.688188 	  
 10.321235 	 5.955478 	 2.551245 	 0.830500 	 0.710875 	 0.686438 	  
 5.998249 	 6.584276 	 3.706662 	 0.827125 	 0.709813 	 0.688250 	  
 3.600956 	 7.288530 	 5.915314 	 0.830500 	 0.710063 	 0.686312 	  
 8.592040 	 8.068240 	 1.230770 	 0.827125 	 0.711125 	 0.688312 	  
 14.534181 	 8.017936 	 -1.897500 	 0.830313 	 0.710250 	 0.686375 	  
 14.825000 	 8.533550 	 -4.027553 	 0.827562 	 0.711750 	 0.688188 	  
 11.020772 	 8.508398 	 -1.378742 	 0.830313 	 0.709688 	 0.686312 	  
 7.358024 	 8.470670 	 -1.622401 	 0.827063 	 0.711438 	 0.688438 	  
 3.600956 	 6.835796 	 0.751311 	 0.828625 	 0.709750 	 0.686250 	  
 3.710996 	 5.578200 	 0.987110 	 0.828187 	 0.711625 	 0.688312 	  
 10.281935 	 7.439442 	 2.268286 	 0.828438 	 0.709750 	 0.686312 	  
 16.648514 	 10.570856 	 3.329383 	 0.829562 	 0.711500 	 0.687813 	  
 18.424868 	 12.142850 	 5.946754 	 0.828187 	 0.709688 	 0.686250 	  
 15.453798 	 11.187078 	 5.168617 	 0.827875 	 0.711438 	 0.688438 	  
 7.829623 	 10.394792 	 4.681298 	 0.828813 	 0.709688 	 0.686312 	  
 2.099701 	 9.753418 	 3.117164 	 0.827937 	 0.711562 	 0.688375 	  
 4.261194 	 8.986285 	 6.308313 	 0.828187 	 0.709562 	 0.686312 	  
 12.239068 	 9.061740 	 6.858511 	 0.829313 	 0.711688 	 0.688000 	  
 15.398778 	 9.439019 	 3.942461 	 0.828375 	 0.709875 	 0.686250 	  
 15.799637 	 9.376139 	 5.514456 	 0.830438 	 0.711625 	 0.687625 	  
 13.142965 	 9.350987 	 3.958181 	 0.829063 	 0.709688 	 0.686250 	  
 5.495210 	 9.086892 	 -1.064343 	 0.828625 	 0.711562 	 0.688375 	  
 -2.734183 	 8.307183 	 1.387969 	 0.828750 	 0.709750 	 0.686250 	  
 -0.777049 	 8.357487 	 3.651642 	 0.829875 	 0.711688 	 0.687937 	  
 6.100428 	 8.445518 	 3.863861 	 0.828688 	 0.709438 	 0.686188 	  
 8.316941 	 8.256879 	 0.955671 	 0.828187 	 0.711375 	 0.688312 	  
 6.226188 	 8.520974 	 -0.804964 	 0.827125 	 0.709375 	 0.686312 	  
 3.860335 	 8.030512 	 -3.477355 	 0.829375 	 0.711500 	 0.687375 	  
 -0.266151 	 7.401714 	 1.474429 	 0.826562 	 0.709500 	 0.686438 	  
 -2.325464 	 6.571700 	 -0.003246 	 0.829125 	 0.711375 	 0.687063 	  
 1.282264 	 7.213074 	 3.620202 	 0.826500 	 0.709562 	 0.687813 	  
 7.373744 	 8.156271 	 2.590545 	 0.829313 	 0.711000 	 0.686250 	  
 11.099372 	 8.181423 	 3.290083 	 0.826313 	 0.710187 	 0.688312 	  
 11.303731 	 6.835796 	 5.710955 	 0.829313 	 0.710438 	 0.686250 	  
 7.908222 	 6.496245 	 2.904944 	 0.826750 	 0.711438 	 0.688312 	  
 2.791379 	 7.313682 	 4.704878 	 0.830063 	 0.710000 	 0.686188 	  
 3.805316 	 7.942480 	 6.166834 	 0.827000 	 0.711938 	 0.688312 	  
 12.522027 	 7.854448 	 5.034997 	 0.829750 	 0.709937 	 0.686375 	  
 18.951487 	 8.282031 	 7.110031 	 0.827063 	 0.711750 	 0.688438 	  
 18.770707 	 8.181423 	 10.474100 	 0.829375 	 0.710000 	 0.686250 	  
 13.803203 	 7.653233 	 5.750255 	 0.827313 	 0.711625 	 0.688250 	  
 6.784246 	 6.760340 	 5.019277 	 0.829750 	 0.709750 	 0.686312 	  
 2.579160 	 6.445941 	 4.877798 	 0.827750 	 0.711688 	 0.688312 	  
 7.719583 	 6.471093 	 6.669872 	 0.829750 	 0.709750 	 0.686125 	  
 18.810007 	 8.445518 	 3.211483 	 0.827813 	 0.711688 	 0.688312 	  
 24.029030 	 11.614660 	 2.276146 	 0.829187 	 0.710187 	 0.686188 	  
 22.087616 	 11.539204 	 -2.266919 	 0.827937 	 0.711688 	 0.688250 	  
 17.017933 	 8.948557 	 -1.127223 	 0.829187 	 0.710187 	 0.686312 	  
 11.240852 	 7.363986 	 -4.664211 	 0.828000 	 0.711938 	 0.688375 	  
 4.528433 	 6.433365 	 -3.846774 	 0.828875 	 0.709937 	 0.686188 	  
 1.368724 	 5.615928 	 -5.206550 	 0.830375 	 0.711813 	 0.687875 	  
 2.508420 	 4.383484 	 -2.848557 	 0.828500 	 0.709625 	 0.686312 	  
 4.504853 	 3.113312 	 -4.601331 	 0.829438 	 0.711625 	 0.688125 	  
 4.339794 	 4.383484 	 -3.697434 	 0.827937 	 0.709562 	 0.686250 	  
 2.209741 	 5.326680 	 -0.459125 	 0.830375 	 0.711625 	 0.687250 	  
 -0.879229 	 6.785492 	 0.672711 	 0.828000 	 0.709625 	 0.686188 	  
 -0.667010 	 7.653233 	 0.358312 	 0.830063 	 0.711688 	 0.687750 	  
 4.960732 	 6.559125 	 -0.993603 	 0.828438 	 0.709500 	 0.686250 	  
 10.729953 	 4.823642 	 3.148603 	 0.830250 	 0.711500 	 0.687562 	  
 12.459148 	 4.421211 	 2.928524 	 0.828438 	 0.709187 	 0.686250 	  
 11.193692 	 5.452440 	 4.846358 	 0.829313 	 0.711063 	 0.688125 	  
 5.817469 	 6.332757 	 3.879581 	 0.828625 	 0.709375 	 0.686063 	  
 0.889265 	 6.194422 	 0.704151 	 0.830875 	 0.711313 	 0.686937 	  
 2.382660 	 5.276377 	 -1.693141 	 0.827688 	 0.709562 	 0.688063 	  
 10.517734 	 3.754686 	 -2.534158 	 0.831187 	 0.711000 	 0.686375 	  
 16.318395 	 3.389983 	 6.646292 	 0.827750 	 0.710250 	 0.688250 	  
 18.982927 	 3.503166 	 6.858511 	 0.830875 	 0.710000 	 0.686375 	  
 20.311262 	 4.811066 	 7.550189 	 0.827813 	 0.711625 	 0.688312 	  
 17.898250 	 6.219574 	 7.251510 	 0.830438 	 0.709750 	 0.686250 	  
 12.121169 	 5.905175 	 4.571259 	 0.828187 	 0.711375 	 0.688500 	  
 9.668857 	 4.333180 	 2.111087 	 0.829688 	 0.709688 	 0.686312 	  
 12.875726 	 3.025280 	 2.551245 	 0.829313 	 0.711562 	 0.688250 	  
 16.184776 	 3.239071 	 1.906727 	 0.829625 	 0.709562 	 0.686375 	  
 17.756771 	 3.880445 	 2.904944 	 0.830750 	 0.711562 	 0.688000 	  
 14.942900 	 4.069085 	 5.011417 	 0.829375 	 0.709625 	 0.686188 	  
 7.703863 	 3.578622 	 2.873504 	 0.831438 	 0.711438 	 0.687250 	  
 0.118988 	 3.830141 	 7.518749 	 0.829187 	 0.709562 	 0.686375 	  
 3.561656 	 3.955901 	 3.062144 	 0.831562 	 0.711562 	 0.687625 	  
 11.154392 	 4.710458 	 1.505869 	 0.829875 	 0.709375 	 0.686375 	  
 15.060799 	 6.722612 	 3.903161 	 0.830625 	 0.711250 	 0.688250 	  
 12.647787 	 7.665809 	 1.969607 	 0.830000 	 0.709500 	 0.686312 	  
 9.134378 	 7.087315 	 3.368683 	 0.831875 	 0.711438 	 0.687250 	  
 6.517007 	 7.074739 	 6.355473 	 0.829313 	 0.709562 	 0.686375 	  
 6.972885 	 8.093392 	 1.545169 	 0.831250 	 0.711625 	 0.687813 	  
 10.219055 	 9.816298 	 4.547679 	 0.829187 	 0.709500 	 0.686250 	  
 12.616347 	 10.596007 	 3.573042 	 0.830375 	 0.711438 	 0.688188 	  
 10.839993 	 9.112044 	 2.598405 	 0.829500 	 0.709250 	 0.686375 	  
 5.636690 	 6.458517 	 1.796688 	 0.831250 	 0.710875 	 0.687250 	  
 -3.331541 	 5.993206 	 4.909238 	 0.829125 	 0.709000 	 0.686312 	  
 -8.723484 	 8.860525 	 5.286516 	 0.831438 	 0.711000 	 0.687438 	  
 -5.697394 	 11.866179 	 6.496953 	 0.829375 	 0.708937 	 0.686188 	  
 3.247257 	 11.426021 	 6.206134 	 0.830250 	 0.710875 	 0.688125 	  
 8.112582 	 10.382216 	 6.795632 	 0.829500 	 0.709000 	 0.686188 	  
 8.576320 	 9.124620 	 4.940678 	 0.831375 	 0.710875 	 0.687250 	  
 5.117931 	 8.885677 	 5.333676 	 0.828500 	 0.708813 	 0.686500 	  
 0.111128 	 8.646734 	 4.414059 	 0.831125 	 0.710875 	 0.687188 	  
 -2.333324 	 9.703114 	 1.663068 	 0.828250 	 0.708813 	 0.686813 	  
 3.742436 	 8.370063 	 5.145037 	 0.830937 	 0.711000 	 0.686750 	  
 13.858223 	 7.841872 	 1.191470 	 0.828375 	 0.709313 	 0.688250 	  
 18.110469 	 7.187922 	 0.680571 	 0.831000 	 0.709875 	 0.686250 	  
 17.167272 	 6.886099 	 4.091800 	 0.827937 	 0.711125 	 0.688438 	  
 14.235502 	 7.037011 	 1.332949 	 0.831313 	 0.709688 	 0.686250 	  
 11.154392 	 6.533973 	 0.767031 	 0.828375 	 0.711375 	 0.688250 	  
 10.281935 	 5.465016 	 3.211483 	 0.830250 	 0.709438 	 0.686375 	  
 13.575264 	 4.458939 	 2.134667 	 0.828000 	 0.711313 	 0.688250 	  
 17.803930 	 4.358332 	 0.208973 	 0.829438 	 0.709500 	 0.686250 	  
 19.218726 	 4.308028 	 2.221126 	 0.829000 	 0.711313 	 0.688375 	  
 19.894684 	 4.295452 	 1.938167 	 0.828875 	 0.709562 	 0.686250 	  
 18.747127 	 4.370908 	 0.947811 	 0.830688 	 0.711063 	 0.687438 	  
 14.400561 	 5.024857 	 5.538036 	 0.828688 	 0.709187 	 0.686375 	  
 11.122952 	 5.452440 	 6.905671 	 0.828875 	 0.711187 	 0.688250 	  
 12.867866 	 8.344911 	 7.188630 	 0.828875 	 0.709250 	 0.686188 	  
 18.519188 	 11.426021 	 8.406926 	 0.829625 	 0.711125 	 0.688000 	  
 20.531342 	 12.205730 	 9.075024 	 0.828375 	 0.709375 	 0.686250 	  
 16.538474 	 10.696615 	 6.237573 	 0.830438 	 0.711313 	 0.687750 	  
 7.696003 	 9.124620 	 6.842791 	 0.829187 	 0.709375 	 0.686250 	  
 -0.140392 	 7.099891 	 3.266503 	 0.828500 	 0.711313 	 0.688438 	  
 -0.242571 	 5.540472 	 -1.009323 	 0.829000 	 0.709313 	 0.686250 	  
 7.963242 	 4.572123 	 -5.151530 	 0.829625 	 0.711063 	 0.688000 	  
 13.017206 	 5.062585 	 -2.628478 	 0.828500 	 0.709375 	 0.686250 	  
 11.350891 	 7.867024 	 -4.789971 	 0.831625 	 0.711375 	 0.687250 	  
 5.864629 	 9.602507 	 -3.265136 	 0.828688 	 0.709187 	 0.686250 	  
 -0.061792 	 8.030512 	 1.482289 	 0.830313 	 0.711000 	 0.688063 	  
 -5.107895 	 6.772916 	 0.216833 	 0.828813 	 0.709313 	 0.686438 	  
 -3.763840 	 5.691383 	 3.706662 	 0.831313 	 0.711125 	 0.687000 	  
 2.909279 	 4.496667 	 4.783478 	 0.828500 	 0.709063 	 0.686562 	  
 7.004325 	 4.031357 	 1.851708 	 0.831187 	 0.711000 	 0.687188 	  
 6.642766 	 5.125465 	 1.631628 	 0.828750 	 0.708875 	 0.686188 	  
 5.361591 	 6.357909 	 0.083213 	 0.830625 	 0.710938 	 0.687750 	  
 1.848182 	 8.684462 	 1.458709 	 0.828625 	 0.709000 	 0.686438 	  
 -1.036429 	 9.929482 	 1.167890 	 0.831125 	 0.711313 	 0.686750 	  
 0.983585 	 8.747341 	 -2.447698 	 0.828125 	 0.709562 	 0.688312 	  
 8.096862 	 6.206998 	 -1.889640 	 0.831125 	 0.710500 	 0.686375 	  
 12.655647 	 4.370908 	 -1.260842 	 0.828125 	 0.711063 	 0.688375 	  
 12.907166 	 2.144963 	 0.586252 	 0.830937 	 0.709625 	 0.686375 	  
 10.281935 	 0.736455 	 2.920664 	 0.828000 	 0.711562 	 0.688312 	  
 6.996465 	 1.428133 	 3.777401 	 0.829562 	 0.709688 	 0.686250 	  
 7.232265 	 2.245570 	 1.238630 	 0.829000 	 0.711750 	 0.688375 	  
 13.559544 	 2.270722 	 3.525882 	 0.828875 	 0.710063 	 0.686375 	  
 23.337352 	 3.213919 	 3.227203 	 0.831125 	 0.711625 	 0.687562 	  
 27.306640 	 5.251225 	 2.559105 	 0.829000 	 0.709813 	 0.686312 	  
 24.429889 	 5.402136 	 5.105737 	 0.828937 	 0.711625 	 0.688312 	  
 16.334115 	 4.081661 	 3.698802 	 0.829063 	 0.709562 	 0.686188 	  
 7.806043 	 3.490590 	 3.966041 	 0.831000 	 0.711438 	 0.687312 	  
 5.330151 	 4.106812 	 4.083940 	 0.829063 	 0.709375 	 0.686312 	  
 10.203335 	 4.232572 	 4.775618 	 0.829688 	 0.711438 	 0.688188 	  
 12.804987 	 4.546971 	 5.978194 	 0.828500 	 0.709562 	 0.686250 	  
 12.537747 	 5.666231 	 7.141470 	 0.831438 	 0.711625 	 0.687188 	  
 8.812119 	 6.672308 	 8.328327 	 0.829000 	 0.709813 	 0.686250 	  
 3.278697 	 6.948979 	 7.392990 	 0.829875 	 0.711500 	 0.688188 	  
 0.472686 	 7.653233 	 3.651642 	 0.828875 	 0.709688 	 0.686375 	  
 2.940718 	 8.244303 	 1.466569 	 0.831250 	 0.711688 	 0.687312 	  
 8.018262 	 8.407791 	 4.146820 	 0.828875 	 0.709313 	 0.686375 	  
 9.448777 	 7.074739 	 2.857784 	 0.830250 	 0.711438 	 0.688063 	  
 7.177245 	 6.144118 	 2.370466 	 0.828875 	 0.709500 	 0.686250 	  
 4.984312 	 7.049587 	 2.323306 	 0.830875 	 0.711313 	 0.687438 	  
 0.834245 	 8.395215 	 0.908511 	 0.828875 	 0.709250 	 0.686312 	  
 -2.199705 	 7.565201 	 2.527665 	 0.830875 	 0.711375 	 0.687625 	  
 1.054325 	 6.483669 	 1.773108 	 0.829000 	 0.709375 	 0.686250 	  
 8.599900 	 6.357909 	 -0.867844 	 0.829875 	 0.711250 	 0.688188 	  
 10.407694 	 6.647156 	 -0.883564 	 0.828688 	 0.709625 	 0.686188 	  
 7.350164 	 6.684884 	 6.544112 	 0.831313 	 0.711250 	 0.686750 	  
 4.316214 	 8.508398 	 6.992131 	 0.828438 	 0.709187 	 0.687500 	  
 1.439463 	 9.237804 	 6.025354 	 0.831438 	 0.711438 	 0.686750 	  
 0.260467 	 9.049164 	 6.386913 	 0.828688 	 0.709688 	 0.688000 	  
 5.605250 	 9.049164 	 4.972118 	 0.831500 	 0.710813 	 0.686562 	  
 13.009346 	 8.860525 	 3.439422 	 0.828500 	 0.710500 	 0.688250 	  
 15.721037 	 7.753841 	 1.560889 	 0.831500 	 0.710187 	 0.686250 	  
 13.418065 	 6.609428 	 2.716305 	 0.828313 	 0.711500 	 0.688375 	  
 9.472357 	 7.452018 	 2.252566 	 0.831125 	 0.710000 	 0.686312 	  
 5.951089 	 9.376139 	 3.753821 	 0.828875 	 0.711750 	 0.688375 	  
 6.344087 	 9.703114 	 2.166107 	 0.830875 	 0.709937 	 0.686250 	  
 12.537747 	 9.099468 	 -0.749944 	 0.828562 	 0.711750 	 0.688500 	  
 17.418792 	 7.653233 	 -0.419825 	 0.829625 	 0.709937 	 0.686250 	  
 17.387352 	 7.263378 	 -0.977883 	 0.829250 	 0.711500 	 0.688312 	  
 12.985766 	 8.546126 	 1.136450 	 0.828875 	 0.709688 	 0.686375 	  
 8.694220 	 8.244303 	 2.959964 	 0.830750 	 0.711250 	 0.687562 	  
 5.526650 	 7.187922 	 4.657719 	 0.828750 	 0.709438 	 0.686250 	  
 5.479490 	 7.514897 	 -1.881780 	 0.829500 	 0.711500 	 0.688312 	  
 11.280151 	 8.055664 	 -0.097566 	 0.829562 	 0.709625 	 0.686312 	  
 17.811790 	 8.734765 	 2.669145 	 0.831125 	 0.711313 	 0.687688 	  
 18.424868 	 9.426443 	 3.470862 	 0.829187 	 0.709500 	 0.686438 	  
 12.702807 	 9.828874 	 2.582685 	 0.829313 	 0.711500 	 0.688312 	  
 5.133651 	 9.527051 	 2.236846 	 0.829250 	 0.709375 	 0.686250 	  
 1.714562 	 9.841450 	 2.071787 	 0.830750 	 0.711125 	 0.687813 	  
 5.644550 	 10.784647 	 2.339026 	 0.829125 	 0.709125 	 0.686375 	  
 12.789267 	 10.834951 	 3.203623 	 0.829313 	 0.711063 	 0.688250 	  
 15.343758 	 11.036166 	 1.639488 	 0.829125 	 0.709000 	 0.686250 	  
 11.272292 	 11.551780 	 1.600188 	 0.830500 	 0.711000 	 0.687875 	  
 5.196531 	 10.822375 	 4.445499 	 0.829688 	 0.708937 	 0.686125 	  
 0.849965 	 8.948557 	 5.050717 	 0.829250 	 0.711125 	 0.688375 	  
 -1.146468 	 6.206998 	 6.088234 	 0.829500 	 0.709375 	 0.686250 	  
 5.023612 	 4.861370 	 2.881364 	 0.831438 	 0.711063 	 0.687375 	  
 13.496664 	 5.867447 	 4.060360 	 0.829375 	 0.709125 	 0.686250 	  
 15.642437 	 6.232150 	 2.677005 	 0.830187 	 0.711250 	 0.688125 	  
 13.268725 	 6.320181 	 3.879581 	 0.829500 	 0.709187 	 0.686188 	  
 8.332661 	 5.829719 	 -0.584885 	 0.831625 	 0.711250 	 0.687188 	  
 2.131141 	 5.125465 	 0.028194 	 0.828750 	 0.709562 	 0.687813 	  
 1.439463 	 4.446363 	 2.692725 	 0.831937 	 0.711375 	 0.686375 	  
 8.702080 	 5.226073 	 3.329383 	 0.828937 	 0.709875 	 0.688188 	  
 16.035436 	 5.993206 	 3.313663 	 0.831813 	 0.710375 	 0.686312 	  
 16.892173 	 5.905175 	 0.546952 	 0.828937 	 0.711375 	 0.688250 	  
 12.592767 	 4.949402 	 2.543385 	 0.831375 	 0.709625 	 0.686250 	  
 5.440190 	 4.106812 	 3.054284 	 0.828375 	 0.711625 	 0.688312 	  
 0.912845 	 3.226495 	 3.290083 	 0.830500 	 0.709750 	 0.686188 	  
 5.864629 	 3.125888 	 1.529449 	 0.829187 	 0.711375 	 0.688375 	  
 14.274802 	 3.075584 	 3.518022 	 0.829438 	 0.709875 	 0.686312 	  
 17.866810 	 4.295452 	 -0.694924 	 0.829875 	 0.711125 	 0.688125 	  
 14.219782 	 6.609428 	 2.252566 	 0.829187 	 0.709438 	 0.686250 	  
 8.662780 	 8.420366 	 3.392263 	 0.830937 	 0.711500 	 0.687562 	  
 4.756373 	 8.734765 	 -0.191886 	 0.829063 	 0.709562 	 0.686250 	  
 2.924999 	 6.785492 	 1.553029 	 0.831000 	 0.711375 	 0.687625 	  
 6.658486 	 5.968054 	 3.753821 	 0.829375 	 0.709500 	 0.686438 	  
 13.661724 	 5.678807 	 3.777401 	 0.829125 	 0.711375 	 0.688250 	  
 15.493098 	 6.559125 	 4.681298 	 0.829625 	 0.709625 	 0.686312 	  
 11.578831 	 6.471093 	 3.620202 	 0.831375 	 0.711500 	 0.687688 	  
 5.424470 	 5.766839 	 4.948538 	 0.829250 	 0.709625 	 0.686250 	  
 0.606306 	 5.540472 	 3.415843 	 0.830500 	 0.711688 	 0.688000 	  
 1.690983 	 7.514897 	 5.938894 	 0.829187 	 0.709625 	 0.686375 	  
 9.621697 	 9.904330 	 7.613069 	 0.831000 	 0.711562 	 0.687625 	  
 17.662451 	 11.991939 	 5.978194 	 0.829500 	 0.709375 	 0.686188 	  
 18.998646 	 11.966787 	 4.641999 	 0.828937 	 0.711250 	 0.688375 	  
 14.526321 	 11.325413 	 3.549462 	 0.829438 	 0.709750 	 0.686188 	  
 8.112582 	 11.111622 	 4.311880 	 0.830625 	 0.711375 	 0.687937 	  
 2.681339 	 10.797223 	 2.653425 	 0.829250 	 0.709125 	 0.686312 	  
 3.396597 	 11.539204 	 0.656991 	 0.829187 	 0.711438 	 0.688250 	  
 9.102939 	 13.941213 	 -1.630261 	 0.829313 	 0.709375 	 0.686063 	  
 13.284445 	 13.475902 	 0.476212 	 0.831063 	 0.711250 	 0.687438 	  
 10.439134 	 9.187500 	 -2.887857 	 0.828813 	 0.709500 	 0.686250 	  
 6.021829 	 6.068662 	 -2.361239 	 0.831313 	 0.711500 	 0.687063 	  
 1.502343 	 6.370485 	 -2.125440 	 0.828375 	 0.709438 	 0.688063 	  
 -1.775266 	 6.974131 	 -1.347302 	 0.831187 	 0.711187 	 0.686375 	  
 0.920705 	 6.533973 	 1.608048 	 0.828625 	 0.710750 	 0.688312 	  
 8.749240 	 6.156694 	 2.417626 	 0.831313 	 0.710000 	 0.686438 	  
 13.818923 	 6.772916 	 3.525882 	 0.828313 	 0.711875 	 0.688375 	  
 12.977906 	 7.363986 	 3.007124 	 0.830125 	 0.709813 	 0.686250 	  
 9.283718 	 6.433365 	 6.127534 	 0.828750 	 0.711562 	 0.688312 	  
 5.416610 	 5.729111 	 0.193253 	 0.829125 	 0.709813 	 0.686312 	  
 5.479490 	 5.402136 	 4.052500 	 0.830000 	 0.711625 	 0.688063 	  
 10.454854 	 5.502744 	 4.799198 	 0.828937 	 0.709500 	 0.686250 	  
 16.341975 	 5.791991 	 2.173967 	 0.830625 	 0.711500 	 0.687688 	  
 17.332332 	 6.030934 	 3.761681 	 0.828813 	 0.709562 	 0.686312 	  
 16.059016 	 5.993206 	 4.091800 	 0.828813 	 0.711438 	 0.688188 	  
 13.048646 	 6.898675 	 0.900651 	 0.828187 	 0.709750 	 0.686312 	  
 8.096862 	 7.967632 	 2.284006 	 0.830438 	 0.711562 	 0.687125 	  
 4.662053 	 7.967632 	 3.706662 	 0.827750 	 0.709750 	 0.686312 	  
 8.647060 	 6.332757 	 5.388696 	 0.829937 	 0.711688 	 0.687562 	  
 14.031143 	 5.288953 	 3.549462 	 0.827937 	 0.709813 	 0.686250 	  
 16.121896 	 4.672731 	 3.038564 	 0.830500 	 0.711750 	 0.687562 	  
 13.488804 	 4.396060 	 7.070731 	 0.828250 	 0.709813 	 0.686250 	  
 7.892502 	 5.050009 	 5.687375 	 0.828000 	 0.711500 	 0.688250 	  
 2.359080 	 6.181846 	 6.033214 	 0.828313 	 0.709688 	 0.686250 	  
 3.105778 	 5.754263 	 5.388696 	 0.829750 	 0.711688 	 0.687813 	  
 9.668857 	 6.546549 	 6.834931 	 0.827875 	 0.709688 	 0.686188 	  
 14.825000 	 7.967632 	 5.404416 	 0.828500 	 0.711625 	 0.688125 	  
 14.644221 	 8.609006 	 5.011417 	 0.828000 	 0.709500 	 0.686250 	  
 11.327311 	 7.791569 	 6.897811 	 0.829125 	 0.711313 	 0.687937 	  
 6.461987 	 6.798068 	 6.567692 	 0.828250 	 0.709125 	 0.686063 	  
 3.042898 	 6.332757 	 5.372976 	 0.827500 	 0.711063 	 0.688188 	  
 4.237614 	 6.244726 	 3.266503 	 0.828125 	 0.709375 	 0.686312 	  
 7.719583 	 5.339256 	 3.840281 	 0.829125 	 0.711313 	 0.688000 	  
 7.931802 	 3.515742 	 2.063927 	 0.827750 	 0.709375 	 0.686188 	  
 6.210468 	 2.559969 	 2.307586 	 0.829875 	 0.711187 	 0.687562 	  
 3.467337 	 4.144540 	 2.079647 	 0.827500 	 0.709500 	 0.686250 	  
 -1.295808 	 5.200921 	 3.195763 	 0.830000 	 0.711562 	 0.686875 	  
 -4.180418 	 4.408635 	 1.859568 	 0.827063 	 0.709500 	 0.688250 	  
