[MyosystemBr1 Versão 3.5.61]
[Informações gerais]
	[Descrição geral] = 
	[Número de amostras por canal] = 50001.000000
	[Duração] = 25.000000 seg
	[Taxa de amostragem por canal] = 2000 Hz
	[Número de canais]  = 7
	[Canais utilizados] = 2	3	4	9	10	11	12	
[Informações sobre canais]
	[canal 1]
		Tipo de eletrodo = Passivo
		Descrição = 
		Unidade = uV
		Freqüência = 2000
		Filtro passa alta = 20.000000 Hz
		Filtro passa baixa = 500.000000 Hz
		Ganho do eletrodo = 20.000000
		Ganho do eletromiógrafo = 397.584015
		Tempo = 25.000000
	[canal 2]
		Tipo de eletrodo = Ativo
		Descrição = 
		Unidade = uV
		Freqüência = 2000
		Filtro passa alta = 20.000000 Hz
		Filtro passa baixa = 500.000000 Hz
		Ganho do eletrodo = 20.000000
		Ganho do eletromiógrafo = 397.583984
		Tempo = 25.000000
	[canal 3]
		Tipo de eletrodo = Ativo
		Descrição = 
		Unidade = uV
		Freqüência = 2000
		Filtro passa alta = 20.000000 Hz
		Filtro passa baixa = 500.000000 Hz
		Ganho do eletrodo = 20.000000
		Ganho do eletromiógrafo = 248.489990
		Tempo = 25.000000
	[canal 4]
		Tipo de eletrodo = Ativo
		Descrição = 
		Unidade = uV
		Freqüência = 2000
		Filtro passa alta = 20.000000 Hz
		Filtro passa baixa = 500.000000 Hz
		Ganho do eletrodo = 20.000000
		Ganho do eletromiógrafo = 397.583984
		Tempo = 25.000000
	[canal 5]
		Tipo de eletrodo = Passivo
		Descrição = 
		Unidade = uV
		Freqüência = 2000
		Filtro passa alta = 20.000000 Hz
		Filtro passa baixa = 1000.000000 Hz
		Ganho do eletrodo = 20.000000
		Ganho do eletromiógrafo = 397.584015
		Tempo = 25.000000
	[canal 6]
		Tipo de eletrodo = Passivo
		Descrição = 
		Unidade = uV
		Freqüência = 2000
		Filtro passa alta = 20.000000 Hz
		Filtro passa baixa = 1000.000000 Hz
		Ganho do eletrodo = 20.000000
		Ganho do eletromiógrafo = 397.584015
		Tempo = 25.000000
	[canal 7]
		Tipo de eletrodo = Passivo
		Descrição = 
		Unidade = uV
		Freqüência = 2000
		Filtro passa alta = 20.000000 Hz
		Filtro passa baixa = 1000.000000 Hz
		Ganho do eletrodo = 20.000000
		Ganho do eletromiógrafo = 397.584015
		Tempo = 25.000000
	[canal 8]
		Tipo de eletrodo = Passivo
		Descrição = 
		Unidade = uV
		Freqüência = 2000
		Filtro passa alta = 20.000000 Hz
		Filtro passa baixa = 1000.000000 Hz
		Ganho do eletrodo = 20.000000
		Ganho do eletromiógrafo = 397.584015
		Tempo = 25.000000
	[canal 9]
		Fonte de sinal auxiliar = Entrada em volts
		Descrição = 
		Unidade = V
		Freqüência = 2000
		Filtro passa alta = 0.000000 Hz
		Filtro passa baixa = 100000.000000 Hz
		Ganho do eletrodo = 1.000000
		Ganho do eletromiógrafo = 1.000000
		Tempo = 25.000000
	[canal 10]
		Fonte de sinal auxiliar = Entrada em volts
		Descrição = 
		Unidade = V
		Freqüência = 2000
		Filtro passa alta = 0.000000 Hz
		Filtro passa baixa = 100000.000000 Hz
		Ganho do eletrodo = 1.000000
		Ganho do eletromiógrafo = 1.000000
		Tempo = 25.000000
	[canal 11]
		Fonte de sinal auxiliar = Entrada em volts
		Descrição = 
		Unidade = V
		Freqüência = 2000
		Filtro passa alta = 0.000000 Hz
		Filtro passa baixa = 100000.000000 Hz
		Ganho do eletrodo = 1.000000
		Ganho do eletromiógrafo = 1.000000
		Tempo = 25.000000
	[canal 12]
		Fonte de sinal auxiliar = Entrada em volts
		Descrição = 
		Unidade = V
		Freqüência = 2000
		Filtro passa alta = 0.000000 Hz
		Filtro passa baixa = 100000.000000 Hz
		Ganho do eletrodo = 1.000000
		Ganho do eletromiógrafo = 1.000000
		Tempo = 25.000000
[Dados]
13.473084 	 13.010592 	 3.824561 	 0.813438 	 0.793063 	 0.579000 	 0.053437 	  
 11.806770 	 12.130274 	 1.930307 	 0.813500 	 0.792312 	 0.579000 	 0.064562 	  
 14.880020 	 9.426443 	 1.749528 	 0.813375 	 0.793500 	 0.579500 	 0.041750 	  
 19.352345 	 4.295452 	 5.223637 	 0.813625 	 0.792125 	 0.579125 	 0.059875 	  
 20.704261 	 -0.345077 	 4.791338 	 0.814063 	 0.793375 	 0.579125 	 0.040688 	  
 20.287682 	 -2.181167 	 5.168617 	 0.813813 	 0.793438 	 0.579063 	 0.042313 	  
 19.816084 	 -2.520718 	 3.313663 	 0.812000 	 0.792750 	 0.579813 	 0.060187 	  
 21.395939 	 -0.269621 	 4.697018 	 0.811937 	 0.793937 	 0.580688 	 0.039188 	  
 21.898977 	 5.301529 	 5.042857 	 0.811688 	 0.794125 	 0.580750 	 0.052750 	  
 18.629228 	 11.929059 	 8.116107 	 0.811625 	 0.792125 	 0.580438 	 0.070500 	  
 17.387352 	 16.607316 	 8.422646 	 0.813250 	 0.792750 	 0.579063 	 0.064687 	  
 16.845013 	 16.934291 	 11.495896 	 0.813750 	 0.793125 	 0.579125 	 0.043938 	  
 14.557761 	 13.513630 	 3.250783 	 0.813063 	 0.793750 	 0.579813 	 0.045875 	  
 12.694947 	 10.470248 	 5.200057 	 0.811312 	 0.792875 	 0.580562 	 0.064562 	  
 13.127245 	 11.614660 	 5.192197 	 0.811500 	 0.792500 	 0.580125 	 0.072875 	  
 15.972556 	 15.802455 	 7.385130 	 0.813063 	 0.791500 	 0.578750 	 0.067875 	  
 18.534908 	 17.940368 	 5.310096 	 0.813562 	 0.792875 	 0.578750 	 0.055688 	  
 18.589928 	 15.299416 	 4.107520 	 0.812937 	 0.792375 	 0.579438 	 0.055188 	  
 14.039003 	 9.564779 	 1.670928 	 0.810813 	 0.792312 	 0.580250 	 0.062375 	  
 6.988605 	 4.169692 	 3.384403 	 0.810937 	 0.790063 	 0.580125 	 0.082437 	  
 1.549503 	 3.478014 	 4.123240 	 0.811063 	 0.789750 	 0.578375 	 0.091938 	  
 -1.083588 	 6.546549 	 10.301180 	 0.812813 	 0.790125 	 0.578375 	 0.066750 	  
 -0.423351 	 9.476747 	 2.912804 	 0.812562 	 0.791312 	 0.578438 	 0.060750 	  
 -0.156111 	 10.520552 	 3.981761 	 0.812625 	 0.791250 	 0.578625 	 0.060500 	  
 -3.402281 	 10.746919 	 2.441206 	 0.812750 	 0.790312 	 0.578375 	 0.066312 	  
 -5.107895 	 13.400446 	 4.948538 	 0.811750 	 0.790000 	 0.578250 	 0.081937 	  
 -4.667737 	 14.859258 	 3.266503 	 0.810750 	 0.790813 	 0.580000 	 0.071500 	  
 -6.286892 	 11.828451 	 1.670928 	 0.813063 	 0.790687 	 0.578500 	 0.057813 	  
 -6.617011 	 7.187922 	 4.744178 	 0.811312 	 0.789938 	 0.578438 	 0.078125 	  
 -0.501950 	 3.452863 	 2.677005 	 0.813250 	 0.790750 	 0.578375 	 0.063188 	  
 5.675990 	 -0.684628 	 2.716305 	 0.813000 	 0.792188 	 0.579313 	 0.056188 	  
 6.391247 	 -1.451762 	 7.801708 	 0.811188 	 0.792500 	 0.580438 	 0.058563 	  
 4.512713 	 0.359177 	 4.484799 	 0.811125 	 0.791250 	 0.580250 	 0.070500 	  
 5.031472 	 1.428133 	 4.068220 	 0.811250 	 0.792813 	 0.580375 	 0.054000 	  
 8.136162 	 1.566469 	 2.645565 	 0.812500 	 0.792250 	 0.578875 	 0.071000 	  
 11.830350 	 2.660577 	 0.208973 	 0.813750 	 0.793687 	 0.579375 	 0.042250 	  
 10.706373 	 2.648001 	 -0.647764 	 0.813937 	 0.792375 	 0.579063 	 0.050375 	  
 7.861063 	 0.899943 	 -5.033630 	 0.812625 	 0.792750 	 0.579375 	 0.063000 	  
 3.428037 	 0.283721 	 0.507652 	 0.811875 	 0.793875 	 0.580750 	 0.048750 	  
 -0.659150 	 -0.420533 	 1.317229 	 0.813312 	 0.794188 	 0.579937 	 0.035438 	  
 0.315487 	 -1.011603 	 1.293649 	 0.814188 	 0.794188 	 0.579562 	 0.038500 	  
 8.222621 	 1.038278 	 7.337970 	 0.813188 	 0.794312 	 0.580125 	 0.035250 	  
 16.845013 	 3.591198 	 2.912804 	 0.811500 	 0.793063 	 0.580750 	 0.057125 	  
 20.122623 	 5.993206 	 7.848868 	 0.811750 	 0.791813 	 0.579813 	 0.066687 	  
 18.817867 	 7.628081 	 8.894245 	 0.813813 	 0.792250 	 0.579125 	 0.057375 	  
 16.286955 	 8.269455 	 7.668089 	 0.813750 	 0.793312 	 0.579125 	 0.044500 	  
 15.988276 	 9.288108 	 8.603426 	 0.811625 	 0.792813 	 0.580813 	 0.049188 	  
 15.493098 	 9.753418 	 7.675949 	 0.811562 	 0.792625 	 0.580625 	 0.068562 	  
 15.084379 	 7.929904 	 8.548406 	 0.811125 	 0.791063 	 0.580313 	 0.074688 	  
 16.947193 	 6.395637 	 10.316900 	 0.812438 	 0.791500 	 0.578688 	 0.071875 	  
 17.127973 	 9.250380 	 10.269740 	 0.813312 	 0.791125 	 0.578750 	 0.055188 	  
 13.363045 	 13.626814 	 13.767429 	 0.813188 	 0.791750 	 0.578937 	 0.058500 	  
 10.305515 	 15.576087 	 10.387640 	 0.810750 	 0.791687 	 0.580187 	 0.065000 	  
 8.733520 	 14.519707 	 9.648802 	 0.810875 	 0.790500 	 0.580187 	 0.087813 	  
 7.192965 	 12.318914 	 10.356200 	 0.810813 	 0.789687 	 0.578562 	 0.092625 	  
 7.640983 	 11.086470 	 2.794905 	 0.812562 	 0.790000 	 0.578688 	 0.076438 	  
 8.977179 	 11.803300 	 2.150387 	 0.812813 	 0.790813 	 0.578313 	 0.062062 	  
 6.399107 	 8.986285 	 7.699529 	 0.812750 	 0.790312 	 0.578562 	 0.065687 	  
 2.720639 	 5.075161 	 5.427996 	 0.811875 	 0.790563 	 0.578500 	 0.083500 	  
 1.077905 	 4.785914 	 5.860295 	 0.810813 	 0.790750 	 0.580187 	 0.081500 	  
 -2.404064 	 6.722612 	 7.668089 	 0.812813 	 0.791375 	 0.578875 	 0.056875 	  
 -6.711330 	 7.565201 	 8.469806 	 0.812813 	 0.790188 	 0.578500 	 0.071500 	  
 -4.659877 	 7.778993 	 4.728458 	 0.811063 	 0.789813 	 0.580250 	 0.078875 	  
 1.054325 	 7.690961 	 1.466569 	 0.810875 	 0.791125 	 0.580313 	 0.068625 	  
 4.882132 	 5.867447 	 2.244706 	 0.811125 	 0.792312 	 0.580375 	 0.054750 	  
 4.426254 	 4.345756 	 3.808841 	 0.813438 	 0.790938 	 0.578875 	 0.073250 	  
 4.779953 	 3.691806 	 1.191470 	 0.811312 	 0.790563 	 0.579750 	 0.069687 	  
 6.139728 	 2.836641 	 3.730242 	 0.811750 	 0.791375 	 0.580625 	 0.064875 	  
 9.165818 	 1.516165 	 3.172183 	 0.813813 	 0.792188 	 0.579250 	 0.049563 	  
 14.597061 	 0.950247 	 2.228986 	 0.811625 	 0.792500 	 0.580813 	 0.044062 	  
 18.519188 	 -1.250546 	 3.400123 	 0.814125 	 0.794000 	 0.579688 	 0.039625 	  
 20.083323 	 -0.584020 	 5.129317 	 0.814000 	 0.792125 	 0.579500 	 0.043688 	  
 18.574208 	 1.038278 	 1.647348 	 0.811937 	 0.791750 	 0.580688 	 0.063188 	  
 16.286955 	 1.076006 	 -0.309785 	 0.811750 	 0.793500 	 0.581187 	 0.042625 	  
 16.805714 	 1.340101 	 4.044641 	 0.813875 	 0.794375 	 0.580187 	 0.035938 	  
 19.713904 	 1.465861 	 6.017494 	 0.811312 	 0.793625 	 0.581125 	 0.043063 	  
 21.348779 	 2.421634 	 3.745961 	 0.811625 	 0.791625 	 0.580750 	 0.066812 	  
 20.672821 	 4.370908 	 6.764192 	 0.812813 	 0.791813 	 0.579187 	 0.065812 	  
 16.994353 	 6.923827 	 6.803492 	 0.813813 	 0.791938 	 0.579250 	 0.043563 	  
 14.054722 	 8.143695 	 4.461219 	 0.813500 	 0.792875 	 0.579625 	 0.044625 	  
 12.915026 	 9.904330 	 4.641999 	 0.811438 	 0.792687 	 0.580937 	 0.055000 	  
 11.555251 	 10.495400 	 9.766702 	 0.811063 	 0.791063 	 0.580813 	 0.071438 	  
 10.839993 	 9.677962 	 8.108247 	 0.811250 	 0.791000 	 0.579750 	 0.072000 	  
 11.665290 	 9.703114 	 9.593783 	 0.813000 	 0.790500 	 0.578875 	 0.066187 	  
 12.922886 	 9.640235 	 8.477666 	 0.813063 	 0.791500 	 0.579063 	 0.056125 	  
 12.333388 	 9.979785 	 7.762408 	 0.812188 	 0.791813 	 0.579750 	 0.059313 	  
 8.544880 	 10.269032 	 8.391206 	 0.810688 	 0.790813 	 0.580500 	 0.072688 	  
 3.718856 	 9.501899 	 11.165777 	 0.810937 	 0.789375 	 0.578813 	 0.091000 	  
 1.887482 	 8.118543 	 8.564126 	 0.812625 	 0.790188 	 0.578875 	 0.061562 	  
 2.390520 	 9.187500 	 8.414786 	 0.812750 	 0.790500 	 0.578625 	 0.062625 	  
 2.618460 	 10.759495 	 4.547679 	 0.812375 	 0.791438 	 0.578875 	 0.060562 	  
 3.262977 	 10.671463 	 6.221853 	 0.812625 	 0.789875 	 0.578625 	 0.070062 	  
 2.437680 	 10.809799 	 0.523372 	 0.810688 	 0.790687 	 0.580562 	 0.074875 	  
 1.258684 	 11.325413 	 -0.160446 	 0.810562 	 0.790875 	 0.580438 	 0.061437 	  
 -1.413707 	 8.822797 	 2.488366 	 0.811000 	 0.791250 	 0.580000 	 0.057438 	  
 -1.421567 	 5.754263 	 3.549462 	 0.810625 	 0.791500 	 0.580688 	 0.056938 	  
 3.758156 	 5.829719 	 5.435856 	 0.810875 	 0.791188 	 0.580500 	 0.067375 	  
 8.089002 	 7.162771 	 6.276873 	 0.811625 	 0.792063 	 0.580187 	 0.056313 	  
 8.631340 	 6.760340 	 4.021061 	 0.813312 	 0.792125 	 0.579250 	 0.053125 	  
 8.678500 	 6.131542 	 6.198274 	 0.813312 	 0.791188 	 0.579125 	 0.066687 	  
 9.503797 	 6.974131 	 5.970334 	 0.811125 	 0.792687 	 0.581000 	 0.056625 	  
 9.802476 	 6.873523 	 6.017494 	 0.813188 	 0.793063 	 0.580187 	 0.043375 	  
 9.637417 	 5.716535 	 0.955671 	 0.811438 	 0.792563 	 0.581063 	 0.059938 	  
 9.818196 	 3.666654 	 3.863861 	 0.811813 	 0.791687 	 0.580125 	 0.064250 	  
 12.003269 	 2.434210 	 1.694508 	 0.811625 	 0.794063 	 0.581375 	 0.047000 	  
 12.207628 	 3.100736 	 4.476939 	 0.813813 	 0.792625 	 0.579438 	 0.040000 	  
 11.382331 	 4.094236 	 4.822778 	 0.811813 	 0.792563 	 0.581250 	 0.068062 	  
 11.602410 	 5.138041 	 5.239357 	 0.811750 	 0.792875 	 0.581313 	 0.055438 	  
 12.506308 	 5.980630 	 5.852435 	 0.811937 	 0.792438 	 0.580438 	 0.064812 	  
 14.376981 	 8.458094 	 7.314390 	 0.813688 	 0.791563 	 0.579438 	 0.053312 	  
 17.418792 	 12.671041 	 3.635922 	 0.813750 	 0.793312 	 0.579813 	 0.043875 	  
 17.253732 	 15.324568 	 11.629516 	 0.812750 	 0.792750 	 0.580688 	 0.043188 	  
 14.023283 	 14.004092 	 6.772052 	 0.811438 	 0.791938 	 0.581000 	 0.063188 	  
 11.594550 	 11.237381 	 7.212210 	 0.811625 	 0.791250 	 0.579750 	 0.069500 	  
 9.488077 	 11.124198 	 7.023571 	 0.813688 	 0.791438 	 0.579313 	 0.065875 	  
 8.199041 	 13.777725 	 10.670599 	 0.813188 	 0.791563 	 0.579438 	 0.056563 	  
 10.234775 	 15.752151 	 9.939621 	 0.813250 	 0.792125 	 0.580187 	 0.054437 	  
 14.392701 	 15.148505 	 8.328327 	 0.810688 	 0.791938 	 0.581000 	 0.067062 	  
 16.617074 	 13.438174 	 7.039291 	 0.810750 	 0.789813 	 0.580813 	 0.083000 	  
 14.628501 	 12.344066 	 5.341536 	 0.811000 	 0.789438 	 0.579250 	 0.081625 	  
 11.170112 	 10.684039 	 8.847085 	 0.812250 	 0.789125 	 0.579000 	 0.086250 	  
 8.010402 	 10.030089 	 9.829582 	 0.812500 	 0.789312 	 0.579187 	 0.063125 	  
 7.444484 	 10.658887 	 6.441933 	 0.812438 	 0.790500 	 0.579625 	 0.062125 	  
 7.358024 	 11.438597 	 4.539819 	 0.811875 	 0.790563 	 0.579937 	 0.061125 	  
 6.454127 	 10.772071 	 5.160757 	 0.812375 	 0.790687 	 0.579625 	 0.057375 	  
 3.726716 	 9.791146 	 3.903161 	 0.811562 	 0.789063 	 0.579000 	 0.084062 	  
 1.455183 	 8.722190 	 1.725948 	 0.810875 	 0.790875 	 0.580438 	 0.059875 	  
 -0.942109 	 8.407791 	 2.488366 	 0.812937 	 0.790250 	 0.579313 	 0.059500 	  
 -2.144685 	 9.288108 	 4.327600 	 0.812562 	 0.790938 	 0.579500 	 0.055813 	  
 2.665619 	 8.948557 	 4.327600 	 0.813063 	 0.790000 	 0.579375 	 0.078625 	  
 7.931802 	 8.307183 	 4.791338 	 0.810937 	 0.789750 	 0.580875 	 0.078063 	  
 10.313375 	 7.037011 	 5.019277 	 0.812188 	 0.790500 	 0.579438 	 0.079875 	  
 10.164035 	 6.471093 	 4.390479 	 0.813375 	 0.791312 	 0.579500 	 0.057438 	  
 8.937879 	 5.490168 	 4.492659 	 0.813250 	 0.792188 	 0.580313 	 0.053562 	  
 6.634907 	 3.792413 	 1.521589 	 0.813625 	 0.791563 	 0.579813 	 0.047063 	  
 8.631340 	 4.006205 	 3.415843 	 0.812063 	 0.791188 	 0.579813 	 0.066062 	  
 13.535964 	 3.716958 	 3.219343 	 0.811438 	 0.793000 	 0.581438 	 0.050438 	  
 16.145476 	 1.641924 	 -0.435545 	 0.812250 	 0.792875 	 0.580438 	 0.066062 	  
 17.010073 	 0.434632 	 1.513729 	 0.813813 	 0.794063 	 0.580250 	 0.042875 	  
 16.538474 	 -1.011603 	 0.476212 	 0.813250 	 0.792125 	 0.579937 	 0.064000 	  
 15.878237 	 -1.942224 	 4.280440 	 0.812500 	 0.792312 	 0.580000 	 0.064750 	  
 13.237285 	 -0.835540 	 5.577336 	 0.814125 	 0.792375 	 0.580063 	 0.044750 	  
 11.602410 	 0.598120 	 0.201113 	 0.813438 	 0.792813 	 0.580187 	 0.050750 	  
 14.785700 	 1.868292 	 3.620202 	 0.811500 	 0.793188 	 0.581688 	 0.044875 	  
 19.108686 	 3.566046 	 6.088234 	 0.811562 	 0.791813 	 0.581500 	 0.066625 	  
 19.713904 	 3.138464 	 6.677732 	 0.811625 	 0.791563 	 0.580750 	 0.066750 	  
 17.827510 	 1.981475 	 9.420863 	 0.812375 	 0.791375 	 0.579813 	 0.069937 	  
 18.377708 	 3.704382 	 8.682025 	 0.813625 	 0.791563 	 0.579750 	 0.051563 	  
 17.709611 	 5.691383 	 8.760625 	 0.813188 	 0.792000 	 0.579875 	 0.057438 	  
 14.510601 	 6.295029 	 8.375486 	 0.811125 	 0.791813 	 0.581500 	 0.059000 	  
 11.547391 	 7.137619 	 5.648075 	 0.810750 	 0.790188 	 0.581375 	 0.072188 	  
 8.694220 	 8.759917 	 8.021788 	 0.811500 	 0.789125 	 0.579500 	 0.080750 	  
 3.333717 	 8.973709 	 5.852435 	 0.812937 	 0.789438 	 0.579500 	 0.058688 	  
 -1.995346 	 8.873101 	 4.249000 	 0.813000 	 0.790563 	 0.579937 	 0.058625 	  
 -6.797790 	 9.715690 	 5.255077 	 0.810375 	 0.789875 	 0.580937 	 0.074000 	  
 -10.311199 	 9.979785 	 3.887441 	 0.810562 	 0.788625 	 0.581063 	 0.087000 	  
 -9.336562 	 10.306760 	 5.420136 	 0.811000 	 0.788062 	 0.579562 	 0.086000 	  
 -4.494817 	 8.080816 	 6.174694 	 0.811188 	 0.787875 	 0.579375 	 0.088313 	  
 1.738142 	 6.974131 	 8.367627 	 0.810625 	 0.787938 	 0.580875 	 0.088375 	  
 4.308354 	 7.024435 	 5.781695 	 0.812875 	 0.790438 	 0.579688 	 0.058375 	  
 5.062912 	 7.829296 	 5.868155 	 0.811188 	 0.788438 	 0.579438 	 0.083125 	  
 3.624536 	 6.596852 	 9.923901 	 0.810750 	 0.790063 	 0.581187 	 0.064312 	  
 2.044681 	 6.445941 	 2.001047 	 0.811688 	 0.789188 	 0.579688 	 0.077625 	  
 6.076848 	 9.250380 	 1.639488 	 0.810937 	 0.789250 	 0.581063 	 0.074563 	  
 12.254788 	 9.703114 	 -0.977883 	 0.811750 	 0.789563 	 0.579688 	 0.077875 	  
 14.109742 	 7.615505 	 -1.512361 	 0.813375 	 0.790750 	 0.579875 	 0.054813 	  
 11.083652 	 4.408635 	 4.107520 	 0.813188 	 0.790000 	 0.579937 	 0.074500 	  
 9.165818 	 2.044355 	 5.993914 	 0.811312 	 0.791125 	 0.581500 	 0.067312 	  
 10.934313 	 2.006627 	 2.881364 	 0.811438 	 0.792875 	 0.581750 	 0.043750 	  
 14.950760 	 2.849217 	 6.496953 	 0.813562 	 0.792625 	 0.580500 	 0.042875 	  
 19.100826 	 3.993629 	 0.578392 	 0.813063 	 0.793438 	 0.581313 	 0.035000 	  
 20.091183 	 6.332757 	 8.147547 	 0.813750 	 0.793625 	 0.580625 	 0.036187 	  
 17.198712 	 8.206575 	 2.716305 	 0.812063 	 0.791938 	 0.580937 	 0.067062 	  
 14.565621 	 7.590353 	 2.669145 	 0.811750 	 0.792250 	 0.582000 	 0.051688 	  
 12.765687 	 6.986707 	 5.097877 	 0.811750 	 0.791938 	 0.581875 	 0.059938 	  
 11.107232 	 6.533973 	 10.324760 	 0.812312 	 0.791500 	 0.580063 	 0.066437 	  
 12.152609 	 6.747764 	 7.966768 	 0.813688 	 0.791250 	 0.580187 	 0.044875 	  
 16.459875 	 10.269032 	 6.717032 	 0.813562 	 0.792500 	 0.580813 	 0.041875 	  
 18.841447 	 14.318491 	 9.153624 	 0.811312 	 0.792625 	 0.581937 	 0.051000 	  
 15.610997 	 12.708769 	 7.809568 	 0.811500 	 0.791312 	 0.581688 	 0.067125 	  
 10.698513 	 9.451595 	 6.732752 	 0.811688 	 0.791000 	 0.580250 	 0.071625 	  
 6.399107 	 8.382639 	 12.022515 	 0.812875 	 0.790938 	 0.579937 	 0.071500 	  
 4.127575 	 6.810644 	 10.285460 	 0.813312 	 0.791125 	 0.580125 	 0.055188 	  
 4.905712 	 6.609428 	 9.798142 	 0.813312 	 0.791938 	 0.580250 	 0.056438 	  
 9.283718 	 9.338412 	 4.909238 	 0.810562 	 0.790938 	 0.581688 	 0.058375 	  
 9.535237 	 12.683617 	 3.038564 	 0.810688 	 0.789375 	 0.581375 	 0.087313 	  
 6.729226 	 13.262111 	 2.842064 	 0.811625 	 0.789813 	 0.579813 	 0.082937 	  
 7.130085 	 11.979363 	 2.339026 	 0.812562 	 0.789000 	 0.579625 	 0.072938 	  
 6.611327 	 9.954634 	 1.411549 	 0.812688 	 0.790500 	 0.579688 	 0.059375 	  
 3.035038 	 8.168847 	 2.111087 	 0.812500 	 0.790188 	 0.580313 	 0.062062 	  
 -0.321171 	 6.118966 	 6.276873 	 0.811750 	 0.790125 	 0.580438 	 0.058688 	  
 1.140784 	 5.050009 	 10.764919 	 0.812688 	 0.790000 	 0.579625 	 0.065687 	  
 3.600956 	 7.049587 	 9.719542 	 0.811813 	 0.789000 	 0.579750 	 0.076188 	  
 4.261194 	 9.376139 	 9.208644 	 0.810500 	 0.789250 	 0.581313 	 0.081375 	  
 1.164364 	 9.954634 	 6.536252 	 0.812438 	 0.791125 	 0.580187 	 0.057875 	  
 -1.680947 	 8.244303 	 6.473373 	 0.812875 	 0.790312 	 0.579875 	 0.056000 	  
 -1.256508 	 8.357487 	 2.967824 	 0.813188 	 0.791563 	 0.580063 	 0.055875 	  
 2.524140 	 9.212652 	 1.136450 	 0.813250 	 0.790750 	 0.580000 	 0.054000 	  
 7.413044 	 8.395215 	 1.450849 	 0.811125 	 0.790750 	 0.581625 	 0.069187 	  
 10.203335 	 6.433365 	 3.698802 	 0.813438 	 0.791000 	 0.579937 	 0.055063 	  
 8.238341 	 5.867447 	 0.625552 	 0.811250 	 0.791563 	 0.581750 	 0.066687 	  
 6.304788 	 5.553048 	 3.738102 	 0.813875 	 0.792687 	 0.580313 	 0.047750 	  
 6.029688 	 3.918173 	 3.541602 	 0.813375 	 0.791875 	 0.580250 	 0.066937 	  
 7.098645 	 1.402981 	 5.357256 	 0.811625 	 0.792063 	 0.581937 	 0.071688 	  
 10.203335 	 0.510088 	 0.656991 	 0.814063 	 0.793687 	 0.580562 	 0.032375 	  
 14.046863 	 2.044355 	 2.684865 	 0.811875 	 0.792625 	 0.582000 	 0.065000 	  
 16.687814 	 2.761185 	 1.867428 	 0.811875 	 0.793875 	 0.582187 	 0.047188 	  
 18.699967 	 2.710881 	 1.710228 	 0.812188 	 0.794125 	 0.582063 	 0.037125 	  
 18.377708 	 3.628926 	 3.981761 	 0.811813 	 0.794312 	 0.582125 	 0.053250 	  
 16.326255 	 4.144540 	 8.461946 	 0.811438 	 0.792125 	 0.582000 	 0.068062 	  
 17.536691 	 5.439864 	 6.897811 	 0.812750 	 0.792500 	 0.580187 	 0.066625 	  
 22.213376 	 8.659310 	 9.892462 	 0.813813 	 0.792500 	 0.580438 	 0.051438 	  
 22.567075 	 11.413445 	 8.603426 	 0.813750 	 0.793438 	 0.580375 	 0.047500 	  
 16.624934 	 11.426021 	 6.944971 	 0.811500 	 0.793563 	 0.582063 	 0.049063 	  
 9.747456 	 9.753418 	 6.158974 	 0.811375 	 0.792000 	 0.581750 	 0.066875 	  
 5.864629 	 8.558702 	 7.282950 	 0.811312 	 0.791063 	 0.581438 	 0.071625 	  
 4.905712 	 7.867024 	 8.037508 	 0.812375 	 0.791188 	 0.579813 	 0.073875 	  
 3.608816 	 7.263378 	 8.061088 	 0.813063 	 0.791000 	 0.579875 	 0.060000 	  
 1.738142 	 6.634580 	 5.726675 	 0.812750 	 0.791500 	 0.580750 	 0.057938 	  
 0.614166 	 6.408213 	 3.588762 	 0.810750 	 0.791813 	 0.581500 	 0.073188 	  
 0.684906 	 6.923827 	 4.476939 	 0.810312 	 0.789250 	 0.580875 	 0.083875 	  
 -1.099308 	 8.319759 	 8.289027 	 0.812000 	 0.789625 	 0.579625 	 0.085375 	  
 -2.875663 	 8.835373 	 1.435129 	 0.812875 	 0.790438 	 0.579813 	 0.066875 	  
 -3.056442 	 7.389138 	 2.928524 	 0.812750 	 0.791250 	 0.579750 	 0.060062 	  
 -1.759546 	 3.855293 	 3.730242 	 0.812562 	 0.790500 	 0.579875 	 0.057688 	  
 0.834245 	 3.188767 	 5.380836 	 0.811250 	 0.790063 	 0.580000 	 0.089125 	  
 4.960732 	 3.226495 	 4.822778 	 0.810562 	 0.791813 	 0.581438 	 0.056250 	  
 7.310864 	 1.138886 	 3.148603 	 0.812875 	 0.791438 	 0.580250 	 0.057938 	  
 5.903929 	 -0.206742 	 1.631628 	 0.812750 	 0.791750 	 0.580625 	 0.055125 	  
 5.330151 	 2.019203 	 2.559105 	 0.813063 	 0.790500 	 0.579875 	 0.074250 	  
 6.013969 	 3.855293 	 3.439422 	 0.811063 	 0.790625 	 0.581313 	 0.078938 	  
 9.723877 	 2.258146 	 10.780639 	 0.812188 	 0.791438 	 0.580000 	 0.069687 	  
 13.386625 	 2.220419 	 5.451576 	 0.811813 	 0.791563 	 0.580688 	 0.073063 	  
 13.190125 	 4.899098 	 3.738102 	 0.811375 	 0.791813 	 0.581625 	 0.072438 	  
 12.529887 	 6.659732 	 1.773108 	 0.811813 	 0.792625 	 0.581250 	 0.073000 	  
 12.474868 	 5.829719 	 4.060360 	 0.813375 	 0.792188 	 0.580375 	 0.061625 	  
 14.219782 	 3.880445 	 8.524826 	 0.813688 	 0.792312 	 0.580500 	 0.046187 	  
 19.053666 	 4.748186 	 4.414059 	 0.814125 	 0.793625 	 0.580500 	 0.034500 	  
 26.497062 	 7.766417 	 5.365116 	 0.813375 	 0.791875 	 0.580375 	 0.066125 	  
 28.540656 	 9.376139 	 5.262937 	 0.811937 	 0.793563 	 0.582125 	 0.054187 	  
 25.679625 	 7.980208 	 7.416570 	 0.811688 	 0.794250 	 0.582375 	 0.036375 	  
 23.596732 	 8.772493 	 9.067164 	 0.812000 	 0.793937 	 0.582125 	 0.053875 	  
 21.757498 	 10.055241 	 4.563399 	 0.811688 	 0.792250 	 0.581250 	 0.072750 	  
 18.519188 	 10.822375 	 5.569476 	 0.814125 	 0.792500 	 0.580375 	 0.046062 	  
 15.728897 	 11.752996 	 4.634139 	 0.813813 	 0.793312 	 0.581000 	 0.040563 	  
 15.658157 	 12.859680 	 3.557322 	 0.811562 	 0.793375 	 0.582063 	 0.057125 	  
 14.337682 	 12.394370 	 5.176477 	 0.811688 	 0.791938 	 0.581750 	 0.070625 	  
 12.459148 	 10.419944 	 4.013201 	 0.812250 	 0.791500 	 0.580187 	 0.072563 	  
 11.570971 	 9.979785 	 6.889951 	 0.813625 	 0.791875 	 0.580063 	 0.052687 	  
 11.429491 	 11.727844 	 8.006068 	 0.813438 	 0.793000 	 0.580562 	 0.054000 	  
 10.219055 	 14.192732 	 7.998208 	 0.811312 	 0.792937 	 0.581625 	 0.058625 	  
 10.478434 	 15.613815 	 9.947481 	 0.810875 	 0.790625 	 0.581625 	 0.081312 	  
 11.052212 	 16.431253 	 5.915314 	 0.811250 	 0.790375 	 0.580063 	 0.083062 	  
 11.311591 	 14.997593 	 1.608048 	 0.812813 	 0.790563 	 0.579937 	 0.077313 	  
 9.354458 	 11.991939 	 3.808841 	 0.812750 	 0.789875 	 0.579750 	 0.063625 	  
 3.821036 	 10.570856 	 1.537309 	 0.812063 	 0.791063 	 0.580562 	 0.061125 	  
 -1.979626 	 9.778570 	 -1.402322 	 0.810500 	 0.791312 	 0.581500 	 0.066937 	  
 -4.604857 	 5.867447 	 3.180043 	 0.810438 	 0.791063 	 0.581375 	 0.066062 	  
 -3.504461 	 0.434632 	 2.936384 	 0.810750 	 0.791125 	 0.581438 	 0.063250 	  
 -0.329031 	 -1.602673 	 4.044641 	 0.813188 	 0.790500 	 0.579875 	 0.058750 	  
 0.653466 	 -1.024179 	 9.122184 	 0.810562 	 0.789813 	 0.581187 	 0.087375 	  
 -1.217208 	 -0.697204 	 11.708116 	 0.811125 	 0.792125 	 0.580813 	 0.056500 	  
 -2.018925 	 0.359177 	 3.738102 	 0.813125 	 0.791563 	 0.579937 	 0.053875 	  
 0.519846 	 4.848794 	 3.769541 	 0.812813 	 0.790938 	 0.579937 	 0.081375 	  
 5.149371 	 9.288108 	 0.916371 	 0.811000 	 0.791813 	 0.581688 	 0.053937 	  
 9.818196 	 9.904330 	 2.378326 	 0.813500 	 0.790938 	 0.580000 	 0.070000 	  
 12.467008 	 7.728689 	 0.987110 	 0.811312 	 0.792875 	 0.581875 	 0.053437 	  
 12.396268 	 6.018358 	 4.288300 	 0.813813 	 0.791813 	 0.580187 	 0.054437 	  
 12.584907 	 8.206575 	 2.276146 	 0.811562 	 0.792687 	 0.581937 	 0.054813 	  
 11.217272 	 7.917328 	 2.480506 	 0.813937 	 0.792000 	 0.580500 	 0.064000 	  
 10.706373 	 4.672731 	 -0.522005 	 0.813312 	 0.794500 	 0.581250 	 0.039938 	  
 13.080086 	 2.786337 	 7.133611 	 0.812063 	 0.792875 	 0.582000 	 0.062563 	  
 18.291249 	 3.251647 	 3.140743 	 0.811937 	 0.794312 	 0.582187 	 0.043938 	  
 20.083323 	 3.893021 	 7.125751 	 0.813875 	 0.793937 	 0.580750 	 0.036250 	  
 17.945410 	 4.546971 	 4.846358 	 0.814188 	 0.793937 	 0.580750 	 0.042625 	  
 14.204062 	 5.968054 	 6.583412 	 0.811750 	 0.793563 	 0.582250 	 0.044312 	  
 11.280151 	 8.319759 	 4.807058 	 0.811625 	 0.791625 	 0.581875 	 0.070500 	  
 10.109015 	 11.576932 	 7.573769 	 0.812875 	 0.791375 	 0.580125 	 0.070187 	  
 13.040786 	 13.249535 	 5.663795 	 0.813875 	 0.791938 	 0.580500 	 0.045625 	  
 14.408421 	 13.727421 	 6.834931 	 0.813813 	 0.793063 	 0.580625 	 0.043938 	  
 13.708884 	 15.676695 	 6.229713 	 0.811250 	 0.793063 	 0.582063 	 0.046938 	  
 13.433785 	 17.399601 	 8.831365 	 0.811312 	 0.790750 	 0.581625 	 0.076500 	  
 12.239068 	 16.028822 	 5.710955 	 0.812312 	 0.790687 	 0.580000 	 0.070750 	  
 10.053995 	 14.117276 	 7.353690 	 0.813500 	 0.791000 	 0.580000 	 0.056875 	  
 6.202608 	 14.192732 	 6.355473 	 0.813000 	 0.791625 	 0.580375 	 0.053875 	  
 3.585236 	 13.840605 	 8.548406 	 0.810937 	 0.791375 	 0.581500 	 0.062250 	  
 2.917139 	 11.426021 	 8.037508 	 0.811125 	 0.790000 	 0.581375 	 0.082125 	  
 2.869979 	 10.030089 	 8.524826 	 0.811000 	 0.788687 	 0.579813 	 0.088750 	  
 1.235104 	 9.703114 	 6.630572 	 0.813000 	 0.789125 	 0.579625 	 0.072188 	  
 -2.506244 	 9.451595 	 6.882091 	 0.812750 	 0.789750 	 0.579750 	 0.061937 	  
 -6.844950 	 7.904752 	 6.756332 	 0.812688 	 0.790250 	 0.579750 	 0.060312 	  
 -6.444091 	 5.037433 	 11.936055 	 0.812875 	 0.789250 	 0.579562 	 0.081125 	  
 -1.508027 	 3.251647 	 6.080374 	 0.811000 	 0.789687 	 0.581375 	 0.082750 	  
 2.476980 	 2.610273 	 4.406199 	 0.812250 	 0.791063 	 0.580313 	 0.055938 	  
 3.050758 	 1.252070 	 3.077864 	 0.811063 	 0.789438 	 0.580375 	 0.085375 	  
 4.041115 	 -0.898419 	 4.366899 	 0.813125 	 0.790312 	 0.579813 	 0.054187 	  
 4.748513 	 -1.627825 	 2.755605 	 0.810875 	 0.790750 	 0.581500 	 0.056875 	  
 4.591313 	 -1.753585 	 2.763465 	 0.812625 	 0.791875 	 0.580688 	 0.058563 	  
 7.813903 	 -1.024179 	 4.131100 	 0.811125 	 0.790438 	 0.581625 	 0.071375 	  
 12.262648 	 -1.615249 	 2.826344 	 0.811188 	 0.792188 	 0.581688 	 0.060250 	  
 12.121169 	 -3.501643 	 3.966041 	 0.811562 	 0.792563 	 0.581688 	 0.050500 	  
 11.665290 	 -1.791312 	 6.269013 	 0.813937 	 0.792625 	 0.580313 	 0.043750 	  
 14.549901 	 0.950247 	 6.355473 	 0.814000 	 0.791750 	 0.580125 	 0.055938 	  
 17.953270 	 0.925095 	 5.923174 	 0.811688 	 0.791250 	 0.581813 	 0.067562 	  
 18.566348 	 0.635848 	 2.331166 	 0.814312 	 0.792750 	 0.580438 	 0.043500 	  
 18.000430 	 1.667076 	 3.533742 	 0.811875 	 0.791875 	 0.581875 	 0.065625 	  
 17.481671 	 1.792836 	 0.822051 	 0.811875 	 0.793125 	 0.581937 	 0.050688 	  
 16.648514 	 2.031779 	 1.018550 	 0.812000 	 0.792687 	 0.582000 	 0.058750 	  
 15.925396 	 2.773761 	 1.222910 	 0.812000 	 0.792188 	 0.582000 	 0.061437 	  
 15.045079 	 3.930749 	 6.992131 	 0.813125 	 0.791250 	 0.580063 	 0.066437 	  
 13.795343 	 6.257301 	 6.371193 	 0.814000 	 0.793563 	 0.580438 	 0.043000 	  
 12.804987 	 10.394792 	 10.143981 	 0.812750 	 0.793250 	 0.581187 	 0.041750 	  
 13.394485 	 13.148927 	 3.219343 	 0.811500 	 0.792500 	 0.581875 	 0.059000 	  
 13.936823 	 15.726999 	 4.280440 	 0.811750 	 0.791375 	 0.581063 	 0.069812 	  
 11.083652 	 18.531438 	 3.761681 	 0.812937 	 0.791000 	 0.580125 	 0.075063 	  
 5.471630 	 18.242191 	 7.896028 	 0.813500 	 0.791438 	 0.579875 	 0.055875 	  
 1.722422 	 12.658465 	 5.121457 	 0.813312 	 0.792500 	 0.580625 	 0.053000 	  
 1.997522 	 7.980208 	 6.127534 	 0.811125 	 0.791438 	 0.581250 	 0.057313 	  
 5.550230 	 8.143695 	 4.021061 	 0.810875 	 0.790188 	 0.581250 	 0.078563 	  
 8.702080 	 10.432520 	 3.195763 	 0.811250 	 0.789438 	 0.579750 	 0.086188 	  
 7.743163 	 11.639812 	 7.455869 	 0.812937 	 0.789500 	 0.579500 	 0.082250 	  
 5.613110 	 12.947712 	 13.091471 	 0.812625 	 0.789625 	 0.579688 	 0.064812 	  
 5.738869 	 15.412600 	 7.227930 	 0.812750 	 0.791000 	 0.579875 	 0.058688 	  
 6.729226 	 17.512785 	 6.559832 	 0.811625 	 0.790250 	 0.580625 	 0.060562 	  
 4.465554 	 14.406523 	 8.218287 	 0.812750 	 0.790250 	 0.579937 	 0.064625 	  
 4.214034 	 9.715690 	 7.133611 	 0.812625 	 0.789625 	 0.579813 	 0.057125 	  
 8.859279 	 8.231727 	 6.174694 	 0.811438 	 0.789375 	 0.579625 	 0.083937 	  
 13.040786 	 9.074316 	 2.511945 	 0.810750 	 0.790875 	 0.581313 	 0.055875 	  
 11.712450 	 8.508398 	 4.406199 	 0.811500 	 0.789250 	 0.579500 	 0.086000 	  
 8.073282 	 5.527896 	 1.120730 	 0.813063 	 0.790250 	 0.579750 	 0.055188 	  
 4.552013 	 3.339679 	 3.997481 	 0.811000 	 0.790312 	 0.581250 	 0.074563 	  
 3.931075 	 2.874368 	 9.758842 	 0.811188 	 0.791813 	 0.581562 	 0.059688 	  
 5.440190 	 3.867869 	 6.434073 	 0.811500 	 0.790687 	 0.580063 	 0.076188 	  
 8.387681 	 4.911674 	 4.602699 	 0.813625 	 0.791125 	 0.579875 	 0.052250 	  
 10.863573 	 5.326680 	 3.337243 	 0.812250 	 0.791375 	 0.580187 	 0.071375 	  
 10.533454 	 6.194422 	 2.677005 	 0.813875 	 0.793063 	 0.580250 	 0.045250 	  
 8.882859 	 6.923827 	 7.330110 	 0.812188 	 0.791063 	 0.579937 	 0.066250 	  
 9.598117 	 6.332757 	 3.730242 	 0.811875 	 0.792063 	 0.582063 	 0.055875 	  
 12.789267 	 5.527896 	 8.689885 	 0.813937 	 0.792375 	 0.580375 	 0.040813 	  
 16.947193 	 4.169692 	 4.924958 	 0.811937 	 0.792125 	 0.581750 	 0.066500 	  
 20.649241 	 4.496667 	 3.345103 	 0.811937 	 0.791938 	 0.581750 	 0.062437 	  
 21.175859 	 6.735188 	 6.795632 	 0.811875 	 0.792438 	 0.582000 	 0.064125 	  
 18.605648 	 7.753841 	 4.948538 	 0.812562 	 0.791687 	 0.580000 	 0.067750 	  
 14.518461 	 8.659310 	 5.168617 	 0.814000 	 0.791625 	 0.580375 	 0.042625 	  
 8.466281 	 8.835373 	 4.186120 	 0.813750 	 0.793000 	 0.580813 	 0.040625 	  
 2.807099 	 6.533973 	 2.810625 	 0.811688 	 0.792500 	 0.581813 	 0.054437 	  
 3.247257 	 3.679230 	 5.844575 	 0.811625 	 0.791125 	 0.581562 	 0.067437 	  
 7.743163 	 3.540894 	 7.723109 	 0.811813 	 0.791063 	 0.580063 	 0.072563 	  
 9.771036 	 5.603352 	 5.600915 	 0.813562 	 0.790500 	 0.579875 	 0.061937 	  
 9.786756 	 7.678385 	 5.828855 	 0.813375 	 0.792188 	 0.580313 	 0.053312 	  
 8.662780 	 9.866602 	 6.426213 	 0.811125 	 0.791813 	 0.581500 	 0.058500 	  
 7.538804 	 12.017091 	 7.613069 	 0.811000 	 0.789938 	 0.581187 	 0.085062 	  
 6.611327 	 12.444673 	 3.973901 	 0.811063 	 0.789500 	 0.580063 	 0.081812 	  
 5.306571 	 11.891331 	 1.749528 	 0.812750 	 0.789875 	 0.579688 	 0.078875 	  
 3.600956 	 11.300261 	 2.889224 	 0.812500 	 0.789750 	 0.579625 	 0.061875 	  
 2.752079 	 10.834951 	 2.504085 	 0.812188 	 0.790687 	 0.580438 	 0.061750 	  
 0.732066 	 10.130697 	 -0.317645 	 0.810500 	 0.790687 	 0.581125 	 0.064812 	  
 -2.113245 	 8.910829 	 3.510162 	 0.810438 	 0.790125 	 0.581063 	 0.072000 	  
 -2.812783 	 8.206575 	 2.456926 	 0.812000 	 0.790563 	 0.580313 	 0.052437 	  
 0.229027 	 9.225228 	 1.183610 	 0.813125 	 0.789250 	 0.579750 	 0.077688 	  
 3.223678 	 9.489323 	 4.500519 	 0.810500 	 0.788750 	 0.581187 	 0.083750 	  
 4.646333 	 6.886099 	 11.338697 	 0.811125 	 0.790438 	 0.580438 	 0.060500 	  
 4.858552 	 4.509243 	 5.899595 	 0.813063 	 0.790188 	 0.579688 	 0.053937 	  
 5.385171 	 4.433787 	 4.366899 	 0.811625 	 0.789375 	 0.579688 	 0.081625 	  
 6.226188 	 4.597275 	 7.220070 	 0.811063 	 0.791750 	 0.581250 	 0.056750 	  
 9.024339 	 5.376984 	 8.351907 	 0.813188 	 0.792125 	 0.580688 	 0.052000 	  
 13.245145 	 5.175769 	 5.074297 	 0.813250 	 0.792312 	 0.580063 	 0.054437 	  
 14.361262 	 2.295874 	 4.359039 	 0.811375 	 0.791063 	 0.581688 	 0.068750 	  
 14.117602 	 -0.231894 	 2.354746 	 0.813750 	 0.791875 	 0.580000 	 0.046687 	  
 13.850363 	 -2.822541 	 0.185393 	 0.812625 	 0.791063 	 0.580063 	 0.066000 	  
 13.512384 	 -6.532449 	 -1.496642 	 0.811875 	 0.791625 	 0.581750 	 0.062062 	  
 13.630284 	 -7.110943 	 5.137177 	 0.811875 	 0.793188 	 0.581875 	 0.039500 	  
 17.607431 	 -2.759661 	 7.251510 	 0.813875 	 0.793188 	 0.580625 	 0.039438 	  
 22.213376 	 2.773761 	 6.229713 	 0.814063 	 0.792438 	 0.580313 	 0.043563 	  
 24.453469 	 6.735188 	 4.414059 	 0.814125 	 0.792750 	 0.580500 	 0.040375 	  
 22.409875 	 7.628081 	 10.914258 	 0.813813 	 0.792937 	 0.580250 	 0.036375 	  
 21.285899 	 7.464594 	 9.177204 	 0.811750 	 0.793125 	 0.581937 	 0.042438 	  
 20.138343 	 9.262956 	 4.091800 	 0.811500 	 0.791938 	 0.581562 	 0.072438 	  
 17.748911 	 10.847527 	 0.114653 	 0.812312 	 0.791750 	 0.579875 	 0.067875 	  
 15.453798 	 8.847949 	 2.763465 	 0.813688 	 0.791813 	 0.580063 	 0.048750 	  
 15.045079 	 5.389560 	 5.852435 	 0.813750 	 0.793188 	 0.580063 	 0.043813 	  
 14.667801 	 6.307605 	 16.895699 	 0.812500 	 0.792563 	 0.580937 	 0.051313 	  
 11.146532 	 11.589508 	 15.559503 	 0.811125 	 0.792188 	 0.581562 	 0.067375 	  
 7.483784 	 15.500632 	 12.792792 	 0.811063 	 0.790438 	 0.581500 	 0.075125 	  
 4.552013 	 16.053974 	 8.854945 	 0.812500 	 0.789563 	 0.579688 	 0.081812 	  
 1.203664 	 14.356219 	 7.589489 	 0.812875 	 0.790188 	 0.579750 	 0.056500 	  
 0.952145 	 11.262533 	 3.258643 	 0.812875 	 0.790875 	 0.580313 	 0.053375 	  
 5.400891 	 9.401291 	 4.744178 	 0.810312 	 0.790063 	 0.581000 	 0.069000 	  
 8.191181 	 10.658887 	 2.771325 	 0.810688 	 0.788687 	 0.581187 	 0.084937 	  
 7.420904 	 12.796800 	 6.088234 	 0.810375 	 0.788062 	 0.580750 	 0.083500 	  
 2.626319 	 11.891331 	 7.699529 	 0.811438 	 0.788125 	 0.579313 	 0.090938 	  
 -2.584844 	 8.483246 	 8.870665 	 0.810750 	 0.788000 	 0.579688 	 0.078938 	  
 -3.339401 	 6.257301 	 -1.048623 	 0.810688 	 0.790500 	 0.580937 	 0.056188 	  
 -1.610207 	 5.968054 	 0.924231 	 0.812750 	 0.788813 	 0.579500 	 0.081875 	  
 0.315487 	 7.225650 	 3.195763 	 0.810625 	 0.789375 	 0.581187 	 0.074125 	  
 1.085764 	 7.703537 	 7.149330 	 0.810937 	 0.790500 	 0.581125 	 0.057375 	  
 2.319780 	 7.150195 	 7.463729 	 0.810625 	 0.789813 	 0.581375 	 0.067437 	  
 2.563440 	 4.723034 	 0.877071 	 0.811063 	 0.791125 	 0.581438 	 0.055813 	  
 1.431603 	 1.604197 	 -5.355889 	 0.813375 	 0.790063 	 0.579625 	 0.074813 	  
 4.583453 	 0.183113 	 -4.884291 	 0.811375 	 0.789875 	 0.580937 	 0.079813 	  
 10.737813 	 -0.407957 	 -1.284422 	 0.812625 	 0.790375 	 0.579937 	 0.067625 	  
 13.968263 	 0.484936 	 7.793848 	 0.811625 	 0.790875 	 0.581375 	 0.066187 	  
 12.899306 	 3.327103 	 4.052500 	 0.813625 	 0.792875 	 0.580250 	 0.042500 	  
 12.074009 	 6.546549 	 6.009634 	 0.812312 	 0.791188 	 0.579937 	 0.066437 	  
 13.881803 	 8.646734 	 2.700585 	 0.812063 	 0.792188 	 0.581937 	 0.063438 	  
 16.727114 	 8.709614 	 0.177533 	 0.813063 	 0.793563 	 0.581187 	 0.042375 	  
 19.871104 	 6.785492 	 0.869211 	 0.814000 	 0.791875 	 0.580125 	 0.048250 	  
 20.712121 	 4.458939 	 1.049990 	 0.812625 	 0.791813 	 0.580000 	 0.062938 	  
 17.442372 	 3.352255 	 4.469079 	 0.814000 	 0.791563 	 0.580187 	 0.056313 	  
 15.500958 	 3.704382 	 9.208644 	 0.813625 	 0.791938 	 0.580187 	 0.046750 	  
 17.623151 	 7.313682 	 6.520532 	 0.811688 	 0.792312 	 0.581937 	 0.049563 	  
 19.195146 	 12.155426 	 12.022515 	 0.811625 	 0.790938 	 0.581562 	 0.069562 	  
 16.467735 	 13.425598 	 8.273307 	 0.811750 	 0.790813 	 0.580250 	 0.070875 	  
 13.418065 	 13.601662 	 5.160757 	 0.812875 	 0.790687 	 0.579750 	 0.069125 	  
 13.276585 	 14.079548 	 4.752038 	 0.813750 	 0.790938 	 0.579875 	 0.052000 	  
 13.614564 	 15.400024 	 10.112541 	 0.813562 	 0.792000 	 0.580000 	 0.056750 	  
 11.020772 	 15.362296 	 4.972118 	 0.811375 	 0.791250 	 0.581375 	 0.059000 	  
 6.611327 	 14.079548 	 8.013928 	 0.811000 	 0.790000 	 0.581250 	 0.083062 	  
 3.388737 	 12.809376 	 3.533742 	 0.810875 	 0.789500 	 0.580500 	 0.082000 	  
 4.182594 	 12.633313 	 6.457653 	 0.811688 	 0.789000 	 0.579625 	 0.083625 	  
 6.517007 	 12.494977 	 10.984998 	 0.812813 	 0.788375 	 0.579313 	 0.071375 	  
 6.949305 	 11.023590 	 21.415184 	 0.812813 	 0.789625 	 0.579625 	 0.062688 	  
 2.492700 	 9.174924 	 14.616306 	 0.811937 	 0.790188 	 0.580313 	 0.061937 	  
 -1.335108 	 9.099468 	 12.832092 	 0.810500 	 0.789813 	 0.580937 	 0.064625 	  
 -5.720973 	 7.540049 	 6.842791 	 0.810375 	 0.790063 	 0.581000 	 0.070062 	  
 -12.677051 	 4.723034 	 2.904944 	 0.811063 	 0.790188 	 0.580562 	 0.057125 	  
 -15.310142 	 3.415135 	 -0.632044 	 0.812937 	 0.789687 	 0.579500 	 0.060625 	  
 -8.039666 	 5.502744 	 -2.416259 	 0.811562 	 0.789000 	 0.579375 	 0.080562 	  
 4.276914 	 8.282031 	 5.797415 	 0.810562 	 0.791125 	 0.581250 	 0.060437 	  
 12.184049 	 10.092969 	 15.575223 	 0.813000 	 0.791125 	 0.579750 	 0.052687 	  
 15.807497 	 10.910406 	 21.894643 	 0.813250 	 0.789813 	 0.579625 	 0.063188 	  
 13.669584 	 10.482824 	 13.405870 	 0.813562 	 0.790250 	 0.579562 	 0.068500 	  
 6.744946 	 6.911251 	 1.065710 	 0.812063 	 0.790188 	 0.579500 	 0.074688 	  
 4.512713 	 3.402559 	 3.172183 	 0.811500 	 0.790250 	 0.581250 	 0.073125 	  
 12.262648 	 1.013126 	 -2.251199 	 0.812125 	 0.791000 	 0.579875 	 0.069250 	  
 18.527048 	 0.132809 	 -6.487725 	 0.811750 	 0.791125 	 0.581375 	 0.063500 	  
 16.208356 	 -1.363730 	 -12.909325 	 0.813688 	 0.792750 	 0.580625 	 0.043313 	  
 9.008619 	 -4.872422 	 -15.039378 	 0.813562 	 0.793375 	 0.581000 	 0.038625 	  
 5.573810 	 -7.764893 	 -7.305163 	 0.814063 	 0.793250 	 0.580187 	 0.036875 	  
 10.053995 	 -7.852925 	 5.145037 	 0.811750 	 0.791500 	 0.581500 	 0.067562 	  
 19.517405 	 -3.665130 	 12.989292 	 0.812125 	 0.792000 	 0.581625 	 0.054375 	  
 23.981870 	 0.937671 	 9.020004 	 0.813188 	 0.791813 	 0.581562 	 0.064125 	  
 21.741778 	 -1.401458 	 2.048207 	 0.813125 	 0.791312 	 0.579688 	 0.063875 	  
 20.374142 	 -7.752317 	 2.063927 	 0.813750 	 0.793000 	 0.580250 	 0.039500 	  
 23.085833 	 -8.393691 	 4.634139 	 0.812937 	 0.792937 	 0.581063 	 0.041188 	  
 24.241250 	 -1.527217 	 3.863861 	 0.811562 	 0.792687 	 0.581625 	 0.051250 	  
 23.211593 	 8.508398 	 6.048934 	 0.811500 	 0.790750 	 0.581438 	 0.071313 	  
 22.543495 	 16.368373 	 7.039291 	 0.811813 	 0.790500 	 0.579875 	 0.067187 	  
 21.254459 	 21.574820 	 7.620929 	 0.813063 	 0.790188 	 0.579750 	 0.071375 	  
 18.511328 	 26.026709 	 10.458380 	 0.813625 	 0.790563 	 0.579688 	 0.053750 	  
 14.023283 	 28.629933 	 9.578063 	 0.813375 	 0.791438 	 0.580000 	 0.057625 	  
 6.124008 	 26.026709 	 13.335130 	 0.810813 	 0.790563 	 0.581125 	 0.062437 	  
 -0.973549 	 19.776458 	 6.685592 	 0.810875 	 0.788750 	 0.581063 	 0.085250 	  
 -1.130748 	 17.487633 	 4.280440 	 0.811500 	 0.788938 	 0.579438 	 0.085375 	  
 4.080415 	 20.015401 	 6.237573 	 0.812063 	 0.788188 	 0.579313 	 0.080125 	  
 4.976452 	 22.480289 	 4.225420 	 0.813000 	 0.789125 	 0.579438 	 0.061250 	  
 0.692766 	 20.304648 	 4.979977 	 0.812688 	 0.789938 	 0.579438 	 0.060937 	  
 -4.809216 	 15.613815 	 6.111814 	 0.812750 	 0.789500 	 0.579313 	 0.063250 	  
 -7.843167 	 11.765572 	 5.663795 	 0.811875 	 0.788250 	 0.579313 	 0.083750 	  
 -6.538411 	 10.017513 	 3.470862 	 0.810937 	 0.790312 	 0.581250 	 0.063875 	  
 -2.349044 	 6.018358 	 7.565909 	 0.812688 	 0.790000 	 0.579937 	 0.057125 	  
 1.918922 	 1.176614 	 12.116834 	 0.812875 	 0.790000 	 0.579875 	 0.055500 	  
 3.310137 	 1.239494 	 4.657719 	 0.813250 	 0.789000 	 0.579438 	 0.073250 	  
 3.514497 	 4.785914 	 4.044641 	 0.811063 	 0.789188 	 0.580875 	 0.079750 	  
 2.209741 	 4.509243 	 3.903161 	 0.812250 	 0.789750 	 0.579562 	 0.076438 	  
 0.040388 	 0.258569 	 2.181827 	 0.813500 	 0.791438 	 0.579750 	 0.050313 	  
 -0.690590 	 -2.885421 	 6.064654 	 0.813813 	 0.789563 	 0.579562 	 0.068375 	  
 1.816742 	 -3.262700 	 1.600188 	 0.811312 	 0.791188 	 0.581375 	 0.050000 	  
 5.110071 	 -2.709357 	 0.114653 	 0.812000 	 0.790125 	 0.580813 	 0.069000 	  
 7.499504 	 -2.319503 	 0.185393 	 0.813875 	 0.791375 	 0.579937 	 0.045312 	  
 7.916082 	 -3.313004 	 -0.812824 	 0.813063 	 0.790625 	 0.580125 	 0.063938 	  
 6.430547 	 -4.042409 	 6.316173 	 0.814250 	 0.791188 	 0.580063 	 0.047375 	  
 2.791379 	 -3.111788 	 1.608048 	 0.813125 	 0.791375 	 0.580125 	 0.063750 	  
 3.561656 	 -1.313426 	 4.390479 	 0.812063 	 0.791875 	 0.581750 	 0.058813 	  
 9.912516 	 0.937671 	 7.070731 	 0.812375 	 0.793125 	 0.581500 	 0.034938 	  
 16.829294 	 3.779838 	 9.939621 	 0.811813 	 0.792188 	 0.581813 	 0.048500 	  
 19.399505 	 6.445941 	 12.116834 	 0.811688 	 0.790563 	 0.581688 	 0.063875 	  
 19.540985 	 7.741265 	 10.709899 	 0.812625 	 0.790875 	 0.579937 	 0.069437 	  
 18.904327 	 9.677962 	 11.267957 	 0.814063 	 0.792250 	 0.580063 	 0.047938 	  
 15.155119 	 9.476747 	 6.489093 	 0.813562 	 0.791625 	 0.580688 	 0.046375 	  
 11.508091 	 8.508398 	 7.204350 	 0.811562 	 0.791250 	 0.581688 	 0.059625 	  
 11.673150 	 8.193999 	 12.784932 	 0.811500 	 0.789625 	 0.581187 	 0.070813 	  
 14.219782 	 8.898253 	 6.819212 	 0.813125 	 0.789375 	 0.579875 	 0.068687 	  
 16.459875 	 10.143273 	 8.061088 	 0.813562 	 0.789938 	 0.579750 	 0.056750 	  
 18.236229 	 12.230882 	 6.874231 	 0.813250 	 0.790063 	 0.580250 	 0.059688 	  
 14.282662 	 10.998438 	 8.902105 	 0.810937 	 0.790063 	 0.581375 	 0.069875 	  
 9.936096 	 7.929904 	 5.923174 	 0.811188 	 0.788750 	 0.581125 	 0.087000 	  
 11.303731 	 6.244726 	 6.827072 	 0.811375 	 0.788062 	 0.579500 	 0.083562 	  
 17.528831 	 4.685307 	 6.732752 	 0.813000 	 0.788062 	 0.579625 	 0.067000 	  
 20.837881 	 5.414712 	 6.056794 	 0.813125 	 0.789687 	 0.579500 	 0.062000 	  
 18.464168 	 8.294607 	 2.598405 	 0.812625 	 0.789563 	 0.579813 	 0.059563 	  
 13.410205 	 10.822375 	 2.441206 	 0.812813 	 0.788250 	 0.579375 	 0.064437 	  
 7.939662 	 13.274687 	 -2.345519 	 0.811375 	 0.788062 	 0.579875 	 0.081437 	  
 5.432330 	 14.771226 	 1.215050 	 0.810750 	 0.789813 	 0.581313 	 0.063563 	  
 6.234048 	 12.645889 	 -2.762097 	 0.813000 	 0.789687 	 0.579875 	 0.059938 	  
 9.323018 	 10.055241 	 -2.683498 	 0.813063 	 0.790250 	 0.580313 	 0.059625 	  
 11.570971 	 8.068240 	 -4.939310 	 0.810937 	 0.790250 	 0.581438 	 0.064125 	  
 9.676717 	 4.295452 	 0.562672 	 0.813125 	 0.790563 	 0.580500 	 0.053625 	  
 5.833189 	 0.359177 	 2.331166 	 0.811375 	 0.789938 	 0.581438 	 0.073688 	  
 6.894286 	 -3.363307 	 2.928524 	 0.811312 	 0.790813 	 0.581625 	 0.058625 	  
 11.468791 	 -6.280930 	 4.979977 	 0.811625 	 0.790188 	 0.581375 	 0.072375 	  
 16.931473 	 -4.872422 	 9.114324 	 0.813688 	 0.790938 	 0.580187 	 0.064375 	  
 20.539202 	 2.069507 	 -0.577025 	 0.811937 	 0.790625 	 0.581813 	 0.069062 	  
 20.012583 	 6.596852 	 1.065710 	 0.812562 	 0.791063 	 0.580313 	 0.068375 	  
 14.840720 	 6.068662 	 -0.883564 	 0.814250 	 0.792000 	 0.580500 	 0.043750 	  
 6.957165 	 3.943325 	 2.794905 	 0.812000 	 0.791000 	 0.581750 	 0.068312 	  
 2.681339 	 1.893444 	 5.545896 	 0.812063 	 0.791438 	 0.582000 	 0.064437 	  
 3.836756 	 2.773761 	 6.646292 	 0.812188 	 0.791312 	 0.582000 	 0.064625 	  
 8.922159 	 6.471093 	 7.864588 	 0.812688 	 0.791250 	 0.580375 	 0.067375 	  
 12.632067 	 9.149772 	 10.458380 	 0.813937 	 0.790687 	 0.580125 	 0.052125 	  
 11.696730 	 10.067817 	 5.742395 	 0.814063 	 0.792563 	 0.580625 	 0.040063 	  
 8.741380 	 12.180578 	 9.963201 	 0.813125 	 0.792188 	 0.581375 	 0.046938 	  
 4.937152 	 12.029667 	 4.956398 	 0.811688 	 0.790813 	 0.581875 	 0.061500 	  
 2.830679 	 11.124198 	 7.448009 	 0.811688 	 0.789875 	 0.580813 	 0.074813 	  
 4.481273 	 11.740420 	 7.613069 	 0.813750 	 0.789938 	 0.580125 	 0.055563 	  
 7.263704 	 12.394370 	 9.853162 	 0.813562 	 0.790687 	 0.580250 	 0.052812 	  
 7.593823 	 14.142428 	 7.094311 	 0.813500 	 0.791188 	 0.580688 	 0.053187 	  
 8.882859 	 16.883987 	 7.573769 	 0.811250 	 0.790750 	 0.581750 	 0.057375 	  
 9.228698 	 18.028399 	 9.208644 	 0.811063 	 0.788625 	 0.581625 	 0.080937 	  
 5.731009 	 16.506708 	 6.646292 	 0.811125 	 0.788875 	 0.580500 	 0.082125 	  
 2.217601 	 13.538782 	 7.707389 	 0.812188 	 0.788563 	 0.579813 	 0.087688 	  
 5.903929 	 12.658465 	 10.788499 	 0.812750 	 0.789312 	 0.579875 	 0.056938 	  
 11.791050 	 12.733921 	 4.728458 	 0.813000 	 0.790250 	 0.580000 	 0.065687 	  
 11.217272 	 11.337989 	 6.622712 	 0.811500 	 0.789687 	 0.580937 	 0.062813 	  
 4.386954 	 8.583854 	 5.703095 	 0.811562 	 0.789188 	 0.580750 	 0.059188 	  
 -0.918529 	 6.634580 	 7.487309 	 0.813063 	 0.788250 	 0.579875 	 0.077125 	  
 -3.724540 	 6.420789 	 3.117164 	 0.810688 	 0.788938 	 0.581500 	 0.076375 	  
 -4.683457 	 6.332757 	 3.911021 	 0.811000 	 0.789750 	 0.581438 	 0.056438 	  
 -0.855649 	 5.326680 	 5.467296 	 0.810750 	 0.790000 	 0.581688 	 0.062062 	  
 4.968592 	 3.893021 	 4.500519 	 0.811000 	 0.789375 	 0.581562 	 0.074188 	  
 7.460204 	 3.012704 	 2.826344 	 0.811000 	 0.789188 	 0.581562 	 0.076813 	  
 7.240125 	 2.044355 	 3.219343 	 0.812063 	 0.789563 	 0.580000 	 0.080437 	  
 5.086492 	 1.176614 	 -0.616324 	 0.811312 	 0.789750 	 0.581750 	 0.066937 	  
 4.544153 	 0.887367 	 -0.977883 	 0.813813 	 0.790000 	 0.580250 	 0.056438 	  
 8.167602 	 1.956323 	 4.264720 	 0.812000 	 0.791063 	 0.580438 	 0.071938 	  
 13.732464 	 3.742110 	 2.975684 	 0.811688 	 0.790438 	 0.582063 	 0.059813 	  
 17.520971 	 3.578622 	 4.374759 	 0.811625 	 0.792250 	 0.582125 	 0.048250 	  
 19.171566 	 1.830564 	 2.244706 	 0.814125 	 0.792687 	 0.580813 	 0.037937 	  
 18.173349 	 1.893444 	 4.366899 	 0.812125 	 0.791438 	 0.582000 	 0.063688 	  
 13.646004 	 2.170115 	 2.063927 	 0.814063 	 0.793250 	 0.581000 	 0.040125 	  
 9.079359 	 2.597697 	 2.614125 	 0.814063 	 0.791500 	 0.580625 	 0.059063 	  
 9.000759 	 3.515742 	 6.669872 	 0.814000 	 0.791875 	 0.580438 	 0.058938 	  
 11.853930 	 2.786337 	 2.716305 	 0.814063 	 0.791438 	 0.580438 	 0.048250 	  
 12.954326 	 2.220419 	 6.402633 	 0.812063 	 0.792687 	 0.582063 	 0.040500 	  
 12.050429 	 4.182268 	 3.981761 	 0.811813 	 0.790875 	 0.582250 	 0.068875 	  
 9.967536 	 5.955478 	 7.047151 	 0.811625 	 0.790500 	 0.581500 	 0.068750 	  
 7.130085 	 5.553048 	 9.208644 	 0.812813 	 0.790500 	 0.580375 	 0.066375 	  
 6.634907 	 6.307605 	 7.510889 	 0.814000 	 0.790750 	 0.580313 	 0.054062 	  
 9.802476 	 9.539627 	 7.856728 	 0.813438 	 0.791063 	 0.580313 	 0.056125 	  
 14.046863 	 11.539204 	 8.186847 	 0.812562 	 0.790875 	 0.581375 	 0.053687 	  
 14.848580 	 12.708769 	 8.792065 	 0.811063 	 0.790375 	 0.581937 	 0.066125 	  
 10.682793 	 14.708346 	 10.120401 	 0.810937 	 0.788750 	 0.581438 	 0.083062 	  
 7.523084 	 15.211384 	 5.019277 	 0.811438 	 0.788563 	 0.579875 	 0.084500 	  
 7.381604 	 12.595585 	 5.160757 	 0.813188 	 0.788750 	 0.580063 	 0.074563 	  
 6.642766 	 7.741265 	 6.449793 	 0.812500 	 0.788938 	 0.579937 	 0.065187 	  
 5.495210 	 5.188345 	 -0.364805 	 0.811188 	 0.789875 	 0.581375 	 0.058313 	  
 4.465554 	 6.282453 	 1.010690 	 0.810750 	 0.789500 	 0.581500 	 0.063250 	  
 3.121498 	 7.653233 	 -0.011106 	 0.810500 	 0.789438 	 0.581500 	 0.065875 	  
 2.642039 	 10.092969 	 3.918881 	 0.812875 	 0.789750 	 0.580313 	 0.059625 	  
 1.761722 	 13.236959 	 -0.891424 	 0.812063 	 0.788687 	 0.579937 	 0.082562 	  
 -1.122888 	 13.639390 	 2.079647 	 0.810937 	 0.789188 	 0.580875 	 0.059750 	  
 -2.569124 	 8.634158 	 6.088234 	 0.813063 	 0.789000 	 0.579937 	 0.058375 	  
 3.616676 	 3.930749 	 -0.105426 	 0.813125 	 0.789750 	 0.580562 	 0.052562 	  
 12.694947 	 1.579045 	 4.131100 	 0.813250 	 0.789188 	 0.580000 	 0.060312 	  
 15.893957 	 0.598120 	 3.274363 	 0.812312 	 0.788625 	 0.580063 	 0.080187 	  
 13.614564 	 2.434210 	 5.349396 	 0.811438 	 0.789125 	 0.581813 	 0.077250 	  
 11.484511 	 6.118966 	 8.265447 	 0.811188 	 0.789938 	 0.582125 	 0.063125 	  
 10.965752 	 9.539627 	 6.606992 	 0.811625 	 0.789563 	 0.581937 	 0.068000 	  
 13.347325 	 9.866602 	 1.655208 	 0.811625 	 0.791563 	 0.582063 	 0.051750 	  
 16.365555 	 8.533550 	 -2.054700 	 0.812312 	 0.790312 	 0.581125 	 0.070500 	  
 16.452015 	 6.219574 	 -1.787461 	 0.814188 	 0.790813 	 0.580562 	 0.063000 	  
 14.369121 	 4.043933 	 5.459436 	 0.812000 	 0.791000 	 0.582187 	 0.060687 	  
 12.129029 	 1.742532 	 6.166834 	 0.811937 	 0.792125 	 0.582500 	 0.046750 	  
 10.745673 	 -0.634324 	 8.721325 	 0.813813 	 0.792125 	 0.581438 	 0.038000 	  
 9.613837 	 1.667076 	 6.559832 	 0.814125 	 0.792125 	 0.580937 	 0.038625 	  
 10.321235 	 7.301106 	 8.595566 	 0.811875 	 0.792000 	 0.582187 	 0.038875 	  
 14.471301 	 10.910406 	 7.243650 	 0.811875 	 0.790063 	 0.582063 	 0.068250 	  
 18.440588 	 12.520129 	 7.306530 	 0.811813 	 0.789938 	 0.581187 	 0.067750 	  
 19.391645 	 13.916061 	 8.218287 	 0.812875 	 0.790188 	 0.580313 	 0.071250 	  
 16.381275 	 13.350143 	 10.293320 	 0.813813 	 0.789750 	 0.580375 	 0.054062 	  
 13.292305 	 12.130274 	 7.432290 	 0.814188 	 0.790687 	 0.580313 	 0.049688 	  
 14.141182 	 11.413445 	 13.602370 	 0.813625 	 0.791000 	 0.580875 	 0.051688 	  
 17.080813 	 11.903907 	 8.493386 	 0.811312 	 0.790875 	 0.582000 	 0.057188 	  
 18.550628 	 12.960288 	 12.022515 	 0.811250 	 0.789000 	 0.581875 	 0.071375 	  
 14.935040 	 13.161503 	 10.725619 	 0.811750 	 0.788750 	 0.580000 	 0.080875 	  
 8.835699 	 12.733921 	 7.314390 	 0.813188 	 0.788625 	 0.580063 	 0.080125 	  
 4.001815 	 12.482401 	 6.465513 	 0.813125 	 0.789438 	 0.580187 	 0.053937 	  
 -0.509810 	 11.413445 	 4.319740 	 0.812875 	 0.789375 	 0.580063 	 0.064312 	  
 -2.726323 	 9.979785 	 5.145037 	 0.811312 	 0.789563 	 0.581313 	 0.060187 	  
 0.425527 	 7.992784 	 2.268286 	 0.810625 	 0.789250 	 0.581562 	 0.062875 	  
 5.117931 	 5.125465 	 4.964258 	 0.810625 	 0.789500 	 0.581375 	 0.071125 	  
 4.748513 	 4.006205 	 13.005012 	 0.810813 	 0.789938 	 0.581625 	 0.063188 	  
 1.077905 	 5.414712 	 5.176477 	 0.813063 	 0.790000 	 0.580125 	 0.053500 	  
 -1.916746 	 9.967209 	 9.562343 	 0.810937 	 0.788625 	 0.581500 	 0.084000 	  
 -2.679163 	 10.721767 	 6.041074 	 0.813188 	 0.789813 	 0.579875 	 0.059750 	  
 -1.421567 	 6.798068 	 2.008907 	 0.812125 	 0.789188 	 0.580000 	 0.079000 	  
 2.704919 	 2.295874 	 1.450849 	 0.813500 	 0.790125 	 0.580125 	 0.058563 	  
 6.461987 	 0.271145 	 3.360823 	 0.813188 	 0.791188 	 0.580875 	 0.053187 	  
 9.558817 	 0.698727 	 2.849924 	 0.813750 	 0.791438 	 0.580187 	 0.053937 	  
 11.673150 	 4.471515 	 2.551245 	 0.811375 	 0.790813 	 0.581875 	 0.070375 	  
 10.541314 	 6.710036 	 2.063927 	 0.813937 	 0.790938 	 0.580250 	 0.058313 	  
 7.436624 	 7.917328 	 -1.103643 	 0.812625 	 0.790875 	 0.580125 	 0.071625 	  
 8.466281 	 7.741265 	 -2.683498 	 0.812000 	 0.791000 	 0.582063 	 0.067500 	  
 12.514167 	 4.987130 	 6.512673 	 0.814125 	 0.790750 	 0.580375 	 0.066062 	  
 18.016150 	 2.786337 	 3.895301 	 0.814375 	 0.793250 	 0.581125 	 0.037062 	  
 21.490258 	 3.729534 	 7.345830 	 0.812312 	 0.791375 	 0.581250 	 0.066250 	  
 21.788937 	 5.754263 	 7.345830 	 0.812125 	 0.791750 	 0.582063 	 0.059563 	  
 17.340192 	 7.489745 	 8.375486 	 0.812250 	 0.792250 	 0.582187 	 0.059875 	  
 13.771763 	 7.540049 	 3.321523 	 0.812063 	 0.792063 	 0.582375 	 0.057438 	  
 14.911460 	 6.420789 	 2.284006 	 0.812375 	 0.791312 	 0.580313 	 0.066312 	  
 16.868593 	 5.641079 	 -2.935017 	 0.814438 	 0.792000 	 0.580562 	 0.047313 	  
 16.334115 	 6.571700 	 0.633412 	 0.814063 	 0.792625 	 0.580750 	 0.041375 	  
 12.467008 	 6.081238 	 2.401906 	 0.812063 	 0.792563 	 0.582063 	 0.049500 	  
 8.254061 	 2.924672 	 7.007851 	 0.811813 	 0.791312 	 0.582000 	 0.058875 	  
 6.281208 	 2.182691 	 5.703095 	 0.812000 	 0.790875 	 0.581750 	 0.073813 	  
 7.554524 	 5.703959 	 5.553756 	 0.813250 	 0.790312 	 0.580187 	 0.069875 	  
 7.892502 	 9.803722 	 6.158974 	 0.813875 	 0.791438 	 0.580187 	 0.057063 	  
 6.949305 	 12.029667 	 11.904615 	 0.813375 	 0.791750 	 0.580813 	 0.054375 	  
 6.642766 	 15.450328 	 11.448737 	 0.811312 	 0.791063 	 0.581562 	 0.065875 	  
 8.089002 	 17.839760 	 9.397283 	 0.811250 	 0.789563 	 0.581750 	 0.080437 	  
 7.303004 	 15.425176 	 6.237573 	 0.811250 	 0.788938 	 0.580562 	 0.092875 	  
 4.654193 	 13.651966 	 10.238300 	 0.812875 	 0.789063 	 0.579875 	 0.083125 	  
 5.573810 	 15.324568 	 4.893518 	 0.813125 	 0.790188 	 0.579937 	 0.060062 	  
 8.882859 	 17.588241 	 6.481233 	 0.813188 	 0.790687 	 0.580000 	 0.059313 	  
 9.252278 	 15.601239 	 5.938894 	 0.813125 	 0.789750 	 0.579937 	 0.066312 	  
 7.185105 	 9.112044 	 4.704878 	 0.812813 	 0.789188 	 0.579875 	 0.081500 	  
 3.475197 	 3.628926 	 2.284006 	 0.811063 	 0.789500 	 0.581562 	 0.075938 	  
 -1.146468 	 0.208265 	 2.024627 	 0.811688 	 0.791375 	 0.581125 	 0.058750 	  
 -4.714897 	 -3.702858 	 0.798471 	 0.811438 	 0.791188 	 0.581375 	 0.058063 	  
 -3.567340 	 -4.771815 	 2.787045 	 0.811375 	 0.791438 	 0.581750 	 0.066312 	  
 0.802805 	 -2.897997 	 5.663795 	 0.813500 	 0.791625 	 0.580562 	 0.053750 	  
 5.062912 	 -0.395381 	 7.589489 	 0.811813 	 0.790625 	 0.581750 	 0.073188 	  
 11.130812 	 0.598120 	 4.728458 	 0.811688 	 0.792125 	 0.581875 	 0.057625 	  
 16.003996 	 1.377829 	 6.732752 	 0.811813 	 0.790750 	 0.581750 	 0.076375 	  
 14.510601 	 1.868292 	 7.039291 	 0.814438 	 0.791500 	 0.580438 	 0.051438 	  
 10.957893 	 2.132387 	 8.799925 	 0.812438 	 0.791813 	 0.581562 	 0.072438 	  
 12.191909 	 2.899520 	 3.125023 	 0.812063 	 0.792813 	 0.582250 	 0.049938 	  
 14.117602 	 1.943747 	 -3.980394 	 0.814625 	 0.792875 	 0.580688 	 0.037375 	  
 12.286228 	 0.661000 	 -4.750671 	 0.812312 	 0.792125 	 0.582313 	 0.056188 	  
 10.643494 	 -1.300850 	 -1.315862 	 0.814562 	 0.793500 	 0.580750 	 0.039500 	  
 12.938606 	 -1.602673 	 4.492659 	 0.814562 	 0.792563 	 0.580875 	 0.044937 	  
 15.249439 	 -0.043254 	 12.808512 	 0.814562 	 0.792937 	 0.580875 	 0.037062 	  
 17.348052 	 3.427711 	 9.357983 	 0.814188 	 0.793500 	 0.581250 	 0.041188 	  
 19.588145 	 7.187922 	 8.705605 	 0.812375 	 0.792687 	 0.582250 	 0.056250 	  
 21.977577 	 9.954634 	 4.634139 	 0.812625 	 0.791938 	 0.580625 	 0.066062 	  
 20.735701 	 11.828451 	 4.759898 	 0.814375 	 0.791813 	 0.580375 	 0.061000 	  
 15.351618 	 12.004515 	 4.021061 	 0.814125 	 0.792312 	 0.580625 	 0.044812 	  
 9.660997 	 12.645889 	 5.113597 	 0.812500 	 0.792750 	 0.581937 	 0.043000 	  
 7.232265 	 14.419099 	 7.235790 	 0.811750 	 0.790875 	 0.581875 	 0.072000 	  
 9.008619 	 15.073049 	 6.237573 	 0.812500 	 0.790500 	 0.580125 	 0.074500 	  
 11.908949 	 15.450328 	 6.237573 	 0.814000 	 0.791188 	 0.580250 	 0.057813 	  
 10.957893 	 15.374872 	 8.218287 	 0.813500 	 0.791813 	 0.580875 	 0.057188 	  
 7.232265 	 15.840182 	 2.126807 	 0.811375 	 0.791312 	 0.581688 	 0.065937 	  
 4.214034 	 15.324568 	 4.013201 	 0.811500 	 0.789813 	 0.581750 	 0.080625 	  
 0.904985 	 12.029667 	 5.459436 	 0.811438 	 0.788938 	 0.580375 	 0.091625 	  
 -1.484447 	 6.383061 	 3.588762 	 0.812937 	 0.789063 	 0.580000 	 0.082250 	  
 1.368724 	 3.440287 	 2.755605 	 0.813250 	 0.790000 	 0.579937 	 0.059625 	  
 7.059345 	 3.364831 	 1.521589 	 0.813188 	 0.789687 	 0.580063 	 0.061250 	  
 8.324801 	 5.012282 	 2.221126 	 0.812250 	 0.788938 	 0.579937 	 0.084812 	  
 4.324074 	 5.779415 	 0.704151 	 0.811312 	 0.791063 	 0.581750 	 0.058750 	  
 0.669186 	 4.081661 	 5.443716 	 0.813375 	 0.790500 	 0.580313 	 0.060562 	  
 -2.191845 	 3.264223 	 9.971061 	 0.813500 	 0.791000 	 0.580250 	 0.061750 	  
 -1.798846 	 4.458939 	 3.651642 	 0.813375 	 0.791250 	 0.580875 	 0.055625 	  
 4.834972 	 6.093814 	 3.117164 	 0.813750 	 0.790188 	 0.580187 	 0.059625 	  
 10.462714 	 5.905175 	 0.680571 	 0.811937 	 0.790000 	 0.580500 	 0.074375 	  
 9.503797 	 4.735610 	 -0.286205 	 0.813063 	 0.790188 	 0.580125 	 0.074875 	  
 9.857496 	 4.509243 	 2.991404 	 0.814063 	 0.791250 	 0.580313 	 0.054500 	  
 12.294088 	 4.873946 	 5.443716 	 0.814000 	 0.790500 	 0.580313 	 0.068812 	  
 13.968263 	 5.766839 	 1.026410 	 0.812250 	 0.793000 	 0.581750 	 0.042375 	  
 12.561327 	 5.188345 	 -1.135083 	 0.814250 	 0.792000 	 0.580688 	 0.043500 	  
 10.140455 	 4.320604 	 -0.073986 	 0.814750 	 0.793500 	 0.581313 	 0.037875 	  
 10.596334 	 5.389560 	 5.239357 	 0.814625 	 0.792250 	 0.580937 	 0.042375 	  
 12.757827 	 7.326258 	 2.724165 	 0.812438 	 0.791500 	 0.582187 	 0.066625 	  
 13.488804 	 6.420789 	 4.146820 	 0.812250 	 0.793250 	 0.582562 	 0.041063 	  
 11.130812 	 4.886522 	 8.383346 	 0.812625 	 0.793125 	 0.582438 	 0.040688 	  
 9.920376 	 5.188345 	 9.554483 	 0.812000 	 0.792500 	 0.582438 	 0.049000 	  
 12.270508 	 7.288530 	 7.927468 	 0.812375 	 0.791000 	 0.582125 	 0.069687 	  
 14.793560 	 10.331912 	 7.565909 	 0.813000 	 0.790500 	 0.580562 	 0.068625 	  
 13.528104 	 11.941635 	 9.051444 	 0.814562 	 0.790938 	 0.580562 	 0.053125 	  
 10.470574 	 10.118121 	 10.717759 	 0.814000 	 0.791375 	 0.580625 	 0.046938 	  
 8.316941 	 10.193577 	 9.609502 	 0.813750 	 0.792250 	 0.581500 	 0.045500 	  
 6.100428 	 12.759072 	 11.095038 	 0.811875 	 0.790563 	 0.582000 	 0.065875 	  
 5.786029 	 13.211807 	 8.713465 	 0.811937 	 0.789438 	 0.581562 	 0.074063 	  
 6.509147 	 10.495400 	 10.128261 	 0.813500 	 0.789125 	 0.580250 	 0.070875 	  
 6.548447 	 8.005360 	 9.082884 	 0.813500 	 0.789625 	 0.580438 	 0.059938 	  
 5.652410 	 8.105968 	 6.551972 	 0.813562 	 0.790750 	 0.580813 	 0.055500 	  
 5.448050 	 8.998861 	 8.155407 	 0.811375 	 0.790687 	 0.581875 	 0.063500 	  
 3.632396 	 9.112044 	 7.157190 	 0.810937 	 0.788000 	 0.581625 	 0.090750 	  
 -0.297591 	 8.131119 	 5.310096 	 0.811937 	 0.788687 	 0.579813 	 0.086688 	  
 -0.981409 	 7.477170 	 7.125751 	 0.813250 	 0.788625 	 0.580125 	 0.070875 	  
 1.478763 	 7.804144 	 5.655935 	 0.813188 	 0.789125 	 0.580000 	 0.063000 	  
 4.111855 	 7.024435 	 7.668089 	 0.813312 	 0.788125 	 0.579937 	 0.073313 	  
 3.223678 	 6.471093 	 0.892791 	 0.811375 	 0.789250 	 0.581625 	 0.067937 	  
 0.645606 	 6.471093 	 2.001047 	 0.813312 	 0.788875 	 0.580063 	 0.064250 	  
 -0.439071 	 8.030512 	 1.718088 	 0.811250 	 0.790188 	 0.581625 	 0.067750 	  
 0.944285 	 9.049164 	 3.706662 	 0.812875 	 0.788125 	 0.580187 	 0.081562 	  
 5.746729 	 9.891754 	 0.853491 	 0.813688 	 0.789438 	 0.580375 	 0.055625 	  
 12.081869 	 7.917328 	 2.008907 	 0.811438 	 0.788500 	 0.581813 	 0.079313 	  
 17.017933 	 2.836641 	 2.331166 	 0.811750 	 0.788813 	 0.581937 	 0.072500 	  
 16.797854 	 -2.646478 	 2.456926 	 0.813875 	 0.789063 	 0.580250 	 0.066312 	  
 13.166545 	 -4.105289 	 1.788828 	 0.812438 	 0.789000 	 0.580625 	 0.071313 	  
 11.728170 	 -1.326002 	 7.581629 	 0.814250 	 0.791500 	 0.580750 	 0.042438 	  
 15.304458 	 1.352677 	 4.987837 	 0.814125 	 0.789875 	 0.580562 	 0.068937 	  
 19.643164 	 1.931171 	 3.407983 	 0.812188 	 0.789687 	 0.582125 	 0.071125 	  
 22.197656 	 0.673576 	 2.944244 	 0.814438 	 0.790687 	 0.580875 	 0.045187 	  
 23.439532 	 -0.093558 	 3.022844 	 0.812250 	 0.789687 	 0.582250 	 0.062000 	  
 22.197656 	 -0.822964 	 4.579119 	 0.812562 	 0.791563 	 0.581813 	 0.037125 	  
 17.851090 	 -0.080982 	 5.459436 	 0.814562 	 0.791938 	 0.581250 	 0.035563 	  
 12.812847 	 4.245148 	 5.034997 	 0.812125 	 0.791875 	 0.582375 	 0.039188 	  
 9.920376 	 10.143273 	 7.471589 	 0.811875 	 0.789875 	 0.582250 	 0.067812 	  
 11.901089 	 13.174079 	 5.302236 	 0.812688 	 0.790312 	 0.580937 	 0.065062 	  
 16.459875 	 12.168002 	 11.723836 	 0.813688 	 0.790188 	 0.580625 	 0.062875 	  
 17.575991 	 9.501899 	 8.516966 	 0.814250 	 0.790438 	 0.580562 	 0.045687 	  
 15.092239 	 7.955056 	 9.090744 	 0.813063 	 0.791250 	 0.581625 	 0.045875 	  
 12.223348 	 9.527051 	 8.493386 	 0.811750 	 0.790563 	 0.582187 	 0.060437 	  
 9.016479 	 11.086470 	 9.609502 	 0.811625 	 0.788625 	 0.581750 	 0.072313 	  
 7.027905 	 11.576932 	 8.131827 	 0.813750 	 0.788750 	 0.580313 	 0.063625 	  
 8.442701 	 11.903907 	 7.636649 	 0.813750 	 0.790438 	 0.580500 	 0.056125 	  
 10.784973 	 11.803300 	 4.382619 	 0.811125 	 0.789813 	 0.582000 	 0.060437 	  
 11.429491 	 13.299839 	 5.545896 	 0.811375 	 0.787750 	 0.581813 	 0.084750 	  
 11.783190 	 13.626814 	 9.499463 	 0.811063 	 0.787500 	 0.580438 	 0.091750 	  
 12.922886 	 13.576510 	 10.513400 	 0.813000 	 0.787250 	 0.580063 	 0.076875 	  
 13.410205 	 14.104700 	 4.311880 	 0.812937 	 0.788563 	 0.580187 	 0.060812 	  
 12.726387 	 14.356219 	 1.969607 	 0.813188 	 0.788875 	 0.580500 	 0.066312 	  
 9.833916 	 11.187078 	 1.655208 	 0.812688 	 0.788938 	 0.580875 	 0.059688 	  
 6.886426 	 7.753841 	 4.516239 	 0.813375 	 0.787813 	 0.580063 	 0.069562 	  
 3.789596 	 7.502321 	 4.359039 	 0.811125 	 0.788000 	 0.581875 	 0.077500 	  
 0.873545 	 8.319759 	 3.101444 	 0.811688 	 0.789312 	 0.581250 	 0.057000 	  
 -1.963906 	 9.137196 	 2.566965 	 0.811875 	 0.789188 	 0.581375 	 0.060062 	  
 -2.985702 	 10.533128 	 2.606265 	 0.811188 	 0.789438 	 0.581937 	 0.066062 	  
 -2.710603 	 10.608583 	 2.056067 	 0.813500 	 0.789938 	 0.580688 	 0.058938 	  
 -1.067869 	 7.162771 	 9.782422 	 0.813500 	 0.789312 	 0.580500 	 0.053250 	  
 2.720639 	 4.635003 	 5.357256 	 0.812375 	 0.789063 	 0.580313 	 0.072188 	  
 5.943229 	 4.396060 	 2.897084 	 0.811500 	 0.789125 	 0.581813 	 0.071000 	  
 7.358024 	 5.578200 	 1.710228 	 0.812000 	 0.790500 	 0.582187 	 0.055625 	  
 6.509147 	 7.414290 	 6.630572 	 0.814063 	 0.789687 	 0.580625 	 0.068750 	  
 6.925726 	 8.206575 	 7.793848 	 0.814063 	 0.791063 	 0.581000 	 0.042313 	  
 12.089729 	 8.181423 	 4.728458 	 0.814188 	 0.790250 	 0.580813 	 0.056563 	  
 16.687814 	 8.294607 	 -2.306219 	 0.814125 	 0.790500 	 0.580750 	 0.039250 	  
 15.147259 	 6.760340 	 -5.678148 	 0.814000 	 0.790500 	 0.580688 	 0.066312 	  
 11.366611 	 3.867869 	 -3.359456 	 0.812438 	 0.790563 	 0.581187 	 0.065937 	  
 14.164762 	 4.521819 	 4.453359 	 0.812813 	 0.790625 	 0.580750 	 0.072750 	  
 16.569914 	 5.930327 	 1.608048 	 0.814250 	 0.790813 	 0.580813 	 0.050625 	  
 18.141909 	 6.332757 	 4.838498 	 0.814063 	 0.791750 	 0.580937 	 0.040500 	  
 19.179426 	 7.602929 	 8.249727 	 0.811625 	 0.791250 	 0.582375 	 0.043625 	  
 17.135833 	 9.476747 	 6.426213 	 0.811750 	 0.789687 	 0.582250 	 0.069062 	  
 12.223348 	 10.470248 	 6.882091 	 0.812438 	 0.789875 	 0.580562 	 0.071438 	  
 7.798183 	 10.331912 	 6.300453 	 0.813375 	 0.789875 	 0.580750 	 0.069312 	  
 5.424470 	 11.086470 	 7.031431 	 0.813750 	 0.789438 	 0.580500 	 0.054875 	  
 4.607033 	 13.475902 	 8.784205 	 0.813438 	 0.790687 	 0.580750 	 0.048438 	  
 5.848909 	 15.890486 	 6.819212 	 0.812188 	 0.790813 	 0.581438 	 0.056750 	  
 8.120442 	 16.406101 	 8.902105 	 0.811000 	 0.789375 	 0.582000 	 0.074250 	  
 7.216545 	 14.519707 	 8.013928 	 0.811250 	 0.788813 	 0.580750 	 0.085437 	  
 3.860335 	 11.501477 	 4.154680 	 0.813125 	 0.788875 	 0.580250 	 0.074000 	  
 1.635963 	 8.973709 	 6.111814 	 0.812625 	 0.788625 	 0.580125 	 0.063063 	  
 -0.517670 	 8.835373 	 5.467296 	 0.811562 	 0.789312 	 0.581313 	 0.057125 	  
 -2.246865 	 10.030089 	 5.993914 	 0.810813 	 0.789188 	 0.581625 	 0.067000 	  
 -2.859943 	 10.885255 	 5.703095 	 0.810750 	 0.788938 	 0.581688 	 0.066375 	  
 -1.091448 	 10.193577 	 5.514456 	 0.810750 	 0.789063 	 0.581813 	 0.069875 	  
 0.527706 	 8.734765 	 2.566965 	 0.813375 	 0.789500 	 0.580688 	 0.054750 	  
 -0.690590 	 5.490168 	 5.380836 	 0.811312 	 0.787687 	 0.580250 	 0.086313 	  
 -1.735966 	 -0.068406 	 6.662012 	 0.813250 	 0.789438 	 0.580313 	 0.058750 	  
 -1.193628 	 -3.250124 	 3.690942 	 0.813125 	 0.788188 	 0.580187 	 0.074375 	  
 1.392303 	 -2.420110 	 2.134667 	 0.813375 	 0.789188 	 0.580187 	 0.056438 	  
 5.841049 	 -2.218895 	 3.282223 	 0.811250 	 0.790063 	 0.582000 	 0.056875 	  
 11.366611 	 -3.048908 	 2.488366 	 0.811188 	 0.789375 	 0.582063 	 0.070187 	  
 15.390918 	 -1.791312 	 1.427269 	 0.811937 	 0.790500 	 0.581313 	 0.051000 	  
 14.691380 	 -1.728433 	 1.238630 	 0.811875 	 0.789375 	 0.581562 	 0.070000 	  
 11.319451 	 -3.992105 	 -5.080790 	 0.814063 	 0.791375 	 0.580438 	 0.044437 	  
 9.747456 	 -5.891075 	 -0.899283 	 0.813500 	 0.789625 	 0.580625 	 0.064312 	  
 15.713177 	 -5.991683 	 2.048207 	 0.812312 	 0.790250 	 0.582063 	 0.066562 	  
 26.355583 	 -4.469992 	 13.170071 	 0.814188 	 0.792687 	 0.580875 	 0.038250 	  
 30.898648 	 -2.872845 	 8.359767 	 0.812312 	 0.790375 	 0.581937 	 0.065937 	  
 29.617472 	 -3.916650 	 6.772052 	 0.811937 	 0.791000 	 0.582375 	 0.056375 	  
 24.885767 	 -3.778314 	 6.339753 	 0.812125 	 0.790750 	 0.582313 	 0.064812 	  
 17.355912 	 -1.263122 	 8.650586 	 0.811750 	 0.790312 	 0.581937 	 0.070875 	  
 10.942173 	 1.981475 	 5.255077 	 0.813312 	 0.789875 	 0.580562 	 0.066000 	  
 11.806770 	 5.301529 	 2.181827 	 0.814188 	 0.790375 	 0.580438 	 0.045562 	  
 16.396995 	 6.483669 	 2.205406 	 0.814000 	 0.791687 	 0.581000 	 0.044437 	  
 15.548118 	 4.773338 	 4.249000 	 0.811688 	 0.791125 	 0.582000 	 0.050313 	  
 10.714233 	 3.050432 	 5.137177 	 0.811625 	 0.789750 	 0.582000 	 0.072500 	  
 9.535237 	 5.150617 	 10.576279 	 0.811937 	 0.789188 	 0.580250 	 0.075813 	  
 10.329095 	 7.778993 	 6.504813 	 0.813750 	 0.789500 	 0.580375 	 0.059750 	  
 10.407694 	 9.313260 	 7.117891 	 0.813688 	 0.790750 	 0.580562 	 0.055813 	  
 10.148315 	 10.507976 	 8.957125 	 0.810937 	 0.790250 	 0.581688 	 0.059688 	  
 9.212978 	 11.149350 	 7.235790 	 0.811063 	 0.788250 	 0.581750 	 0.083312 	  
 6.925726 	 11.488901 	 7.958908 	 0.811438 	 0.788188 	 0.580313 	 0.080062 	  
 6.179028 	 12.494977 	 7.974628 	 0.812250 	 0.787500 	 0.579813 	 0.086313 	  
 4.819252 	 14.771226 	 8.461946 	 0.813188 	 0.788000 	 0.579750 	 0.064000 	  
 1.730282 	 15.475480 	 6.363333 	 0.812937 	 0.789125 	 0.580125 	 0.062750 	  
 -2.042505 	 14.419099 	 6.827072 	 0.813000 	 0.788875 	 0.580187 	 0.060812 	  
 -1.924606 	 11.778148 	 7.723109 	 0.813188 	 0.788250 	 0.579937 	 0.065187 	  
 0.425527 	 9.501899 	 3.793121 	 0.812000 	 0.788062 	 0.579875 	 0.084125 	  
 2.359080 	 7.791569 	 6.190414 	 0.810937 	 0.789375 	 0.581500 	 0.067125 	  
 -0.085372 	 5.465016 	 5.396556 	 0.813375 	 0.788312 	 0.579937 	 0.074125 	  
 0.252607 	 5.955478 	 -0.317645 	 0.811500 	 0.788188 	 0.580813 	 0.080125 	  
 3.561656 	 8.068240 	 -1.583101 	 0.811063 	 0.790063 	 0.581688 	 0.060562 	  
 6.705646 	 10.545704 	 -0.553445 	 0.813188 	 0.790625 	 0.580813 	 0.053062 	  
 8.725660 	 11.476325 	 -1.268702 	 0.813750 	 0.791000 	 0.580250 	 0.053312 	  
 9.653137 	 10.847527 	 2.417626 	 0.811750 	 0.789563 	 0.581625 	 0.077625 	  
 8.882859 	 9.149772 	 3.706662 	 0.811500 	 0.790125 	 0.582000 	 0.061375 	  
 8.175462 	 9.615083 	 4.288300 	 0.812063 	 0.790312 	 0.581500 	 0.071188 	  
 8.977179 	 10.319336 	 2.920664 	 0.811937 	 0.791750 	 0.582000 	 0.046500 	  
 9.488077 	 10.168425 	 1.207190 	 0.813937 	 0.791563 	 0.580438 	 0.040250 	  
 11.460931 	 9.288108 	 3.958181 	 0.814750 	 0.792687 	 0.580750 	 0.038625 	  
 14.895740 	 5.414712 	 7.267230 	 0.814250 	 0.791312 	 0.580500 	 0.045687 	  
 15.996136 	 0.925095 	 2.692725 	 0.812375 	 0.790938 	 0.581875 	 0.059563 	  
 14.180482 	 -0.080982 	 0.169673 	 0.813750 	 0.792500 	 0.581375 	 0.036875 	  
 12.860006 	 3.654078 	 3.321523 	 0.812813 	 0.792625 	 0.581937 	 0.041063 	  
 10.604194 	 7.577777 	 7.275090 	 0.811750 	 0.789875 	 0.581750 	 0.064875 	  
 9.040059 	 11.224805 	 7.675949 	 0.812937 	 0.790813 	 0.580125 	 0.066375 	  
 11.948249 	 14.079548 	 12.729912 	 0.814250 	 0.790625 	 0.580375 	 0.051563 	  
 16.286955 	 16.318069 	 3.958181 	 0.814063 	 0.791125 	 0.580187 	 0.046125 	  
 17.701751 	 15.965942 	 8.289027 	 0.813750 	 0.791250 	 0.580875 	 0.042375 	  
 14.180482 	 12.771648 	 7.282950 	 0.812000 	 0.790875 	 0.581688 	 0.060500 	  
 8.387681 	 11.124198 	 10.890678 	 0.811875 	 0.789188 	 0.580625 	 0.073438 	  
 4.386954 	 12.067395 	 8.210427 	 0.813813 	 0.789438 	 0.580125 	 0.061500 	  
 5.880349 	 14.368795 	 8.265447 	 0.813875 	 0.790188 	 0.580063 	 0.053625 	  
 8.654920 	 14.054396 	 6.182554 	 0.811312 	 0.789500 	 0.581438 	 0.057875 	  
 7.908222 	 12.671041 	 7.675949 	 0.811312 	 0.788500 	 0.581375 	 0.076813 	  
 7.271564 	 11.111622 	 5.577336 	 0.811438 	 0.787813 	 0.580000 	 0.090125 	  
 5.227971 	 11.337989 	 11.684536 	 0.813312 	 0.787687 	 0.579688 	 0.074250 	  
 2.241181 	 12.960288 	 4.083940 	 0.813188 	 0.789063 	 0.579688 	 0.054312 	  
 -1.177908 	 13.664542 	 4.830638 	 0.812875 	 0.788813 	 0.580313 	 0.059813 	  
 -2.977842 	 12.658465 	 5.074297 	 0.813125 	 0.788813 	 0.580063 	 0.066812 	  
 -2.262585 	 13.702269 	 4.791338 	 0.813188 	 0.788375 	 0.579750 	 0.056250 	  
 -2.270445 	 16.431253 	 1.340809 	 0.811500 	 0.788125 	 0.581187 	 0.082500 	  
 -2.081805 	 15.638967 	 1.670928 	 0.813438 	 0.789687 	 0.579937 	 0.058375 	  
 -3.936759 	 12.796800 	 4.272580 	 0.813375 	 0.787750 	 0.579562 	 0.064562 	  
 -4.927116 	 10.482824 	 0.177533 	 0.811438 	 0.788375 	 0.581187 	 0.077625 	  
 -3.991779 	 8.269455 	 5.703095 	 0.811500 	 0.789687 	 0.581250 	 0.059500 	  
 -0.839929 	 5.653655 	 10.686319 	 0.811875 	 0.788625 	 0.581375 	 0.076000 	  
 4.921432 	 2.962400 	 2.386186 	 0.812562 	 0.788875 	 0.579813 	 0.079563 	  
 10.399834 	 2.056931 	 4.005341 	 0.814250 	 0.789125 	 0.580000 	 0.054375 	  
 13.535964 	 4.660155 	 2.527665 	 0.812312 	 0.789687 	 0.580937 	 0.070500 	  
 15.280879 	 6.056086 	 -4.224053 	 0.814312 	 0.791375 	 0.579937 	 0.041313 	  
 13.127245 	 3.566046 	 -1.858200 	 0.812875 	 0.789875 	 0.580000 	 0.069500 	  
 12.160469 	 -0.433109 	 -0.679204 	 0.812750 	 0.791063 	 0.581625 	 0.054500 	  
 15.532398 	 -2.835117 	 2.511945 	 0.814562 	 0.790687 	 0.580250 	 0.050313 	  
 21.010800 	 -3.048908 	 -0.907143 	 0.812375 	 0.790188 	 0.581750 	 0.061312 	  
 26.575662 	 -3.438763 	 -0.828544 	 0.812500 	 0.792125 	 0.581937 	 0.039250 	  
 32.439203 	 -4.243625 	 6.701312 	 0.812750 	 0.792000 	 0.581813 	 0.039813 	  
 37.477447 	 -4.319080 	 7.683809 	 0.812250 	 0.790750 	 0.581688 	 0.058188 	  
 40.220578 	 -3.136940 	 7.172910 	 0.812813 	 0.790125 	 0.580063 	 0.068125 	  
 41.713973 	 -0.307349 	 7.699529 	 0.814625 	 0.790500 	 0.579937 	 0.043938 	  
 42.177711 	 2.446786 	 7.565909 	 0.814188 	 0.791375 	 0.580187 	 0.044187 	  
 36.400630 	 2.522242 	 4.209700 	 0.812188 	 0.791312 	 0.581562 	 0.046875 	  
 29.963311 	 3.528318 	 9.106464 	 0.812188 	 0.789813 	 0.581438 	 0.069000 	  
 25.373086 	 6.458517 	 13.240811 	 0.812250 	 0.789000 	 0.579875 	 0.073938 	  
 20.767141 	 9.338412 	 10.898538 	 0.814063 	 0.789125 	 0.579750 	 0.063000 	  
 14.942900 	 11.803300 	 11.063598 	 0.813937 	 0.790250 	 0.579937 	 0.055688 	  
 10.895013 	 13.073471 	 13.735989 	 0.811375 	 0.789500 	 0.581313 	 0.056500 	  
 8.592040 	 12.092547 	 6.772052 	 0.811500 	 0.787750 	 0.581250 	 0.081000 	  
 5.770309 	 10.684039 	 4.249000 	 0.811750 	 0.788000 	 0.580125 	 0.079875 	  
 0.967865 	 10.092969 	 3.038564 	 0.813188 	 0.786750 	 0.579500 	 0.076813 	  
 -2.294025 	 9.979785 	 1.906727 	 0.813438 	 0.788375 	 0.579438 	 0.061562 	  
 -3.795280 	 10.130697 	 3.054284 	 0.813125 	 0.788875 	 0.580000 	 0.055625 	  
 -8.055386 	 9.124620 	 2.732025 	 0.812375 	 0.788750 	 0.580313 	 0.065562 	  
 -13.242969 	 6.533973 	 3.777401 	 0.812438 	 0.788813 	 0.580375 	 0.050563 	  
 -13.093630 	 3.591198 	 1.120730 	 0.813813 	 0.788625 	 0.579562 	 0.055563 	  
 -7.717407 	 3.125888 	 4.657719 	 0.811250 	 0.787438 	 0.581125 	 0.085375 	  
 -2.404064 	 5.138041 	 7.353690 	 0.813438 	 0.788625 	 0.579500 	 0.058500 	  
 -2.600564 	 7.351410 	 0.515512 	 0.812250 	 0.788250 	 0.579438 	 0.076375 	  
 -5.563774 	 7.716113 	 4.036781 	 0.813750 	 0.788750 	 0.579750 	 0.058750 	  
 -6.978569 	 6.722612 	 2.566965 	 0.813375 	 0.790125 	 0.580438 	 0.053312 	  
 -2.294025 	 4.936826 	 2.999264 	 0.814000 	 0.790063 	 0.579813 	 0.051938 	  
 4.583453 	 3.000128 	 6.048934 	 0.811875 	 0.789188 	 0.581375 	 0.064375 	  
 9.095079 	 2.308450 	 7.015711 	 0.814250 	 0.789563 	 0.579813 	 0.059250 	  
 9.189398 	 4.320604 	 2.284006 	 0.812813 	 0.789750 	 0.579813 	 0.070187 	  
 7.342304 	 7.351410 	 4.979977 	 0.812188 	 0.789875 	 0.581500 	 0.065625 	  
 6.532727 	 6.747764 	 2.983544 	 0.814688 	 0.790563 	 0.580063 	 0.061812 	  
 7.098645 	 5.691383 	 1.898867 	 0.812625 	 0.791625 	 0.581688 	 0.051188 	  
 8.985039 	 5.465016 	 -1.111503 	 0.812375 	 0.792250 	 0.581937 	 0.040375 	  
 9.535237 	 3.930749 	 2.606265 	 0.814750 	 0.791750 	 0.579937 	 0.035313 	  
 9.307298 	 1.063430 	 0.932091 	 0.814625 	 0.791250 	 0.580063 	 0.042250 	  
 7.672423 	 0.484936 	 4.571259 	 0.814375 	 0.791938 	 0.580000 	 0.039063 	  
 7.075065 	 2.899520 	 8.524826 	 0.812188 	 0.791875 	 0.581750 	 0.042875 	  
 9.283718 	 6.760340 	 8.477666 	 0.812312 	 0.790250 	 0.581375 	 0.069562 	  
 12.718527 	 8.986285 	 5.498736 	 0.812625 	 0.790250 	 0.580187 	 0.067562 	  
 15.595278 	 7.879600 	 8.689885 	 0.813375 	 0.789813 	 0.579750 	 0.069312 	  
 16.915753 	 5.880023 	 7.974628 	 0.814375 	 0.790000 	 0.579813 	 0.049313 	  
 16.640654 	 7.074739 	 10.977138 	 0.814188 	 0.790875 	 0.579937 	 0.050500 	  
 14.015423 	 9.413867 	 8.721325 	 0.813125 	 0.790500 	 0.580688 	 0.053125 	  
 10.910733 	 11.224805 	 8.265447 	 0.811688 	 0.790625 	 0.581375 	 0.063188 	  
 8.702080 	 12.557857 	 9.931761 	 0.811562 	 0.788188 	 0.581063 	 0.085000 	  
 8.136162 	 12.671041 	 7.613069 	 0.812375 	 0.788250 	 0.579500 	 0.086438 	  
 8.560600 	 11.765572 	 6.096094 	 0.813625 	 0.788438 	 0.579438 	 0.061000 	  
 7.585963 	 7.602929 	 6.787772 	 0.813312 	 0.789000 	 0.579438 	 0.061875 	  
 5.275131 	 4.735610 	 6.709172 	 0.811188 	 0.788813 	 0.580937 	 0.064437 	  
 2.186161 	 6.823220 	 4.343320 	 0.811000 	 0.787312 	 0.580875 	 0.082625 	  
 -2.034645 	 9.979785 	 5.695235 	 0.811125 	 0.787188 	 0.580813 	 0.089188 	  
 -5.265095 	 10.281608 	 10.238300 	 0.811063 	 0.787250 	 0.580813 	 0.077875 	  
 -2.576984 	 8.948557 	 4.492659 	 0.813375 	 0.788938 	 0.579688 	 0.051188 	  
 2.233321 	 8.722190 	 1.780968 	 0.811375 	 0.787125 	 0.580750 	 0.082687 	  
 4.182594 	 8.080816 	 1.474429 	 0.813438 	 0.789250 	 0.579438 	 0.058625 	  
 2.359080 	 7.917328 	 2.354746 	 0.813750 	 0.787813 	 0.579250 	 0.068312 	  
 1.408023 	 6.622004 	 3.651642 	 0.811438 	 0.788000 	 0.581000 	 0.081250 	  
 1.816742 	 3.515742 	 4.288300 	 0.813688 	 0.789687 	 0.579688 	 0.052500 	  
 5.062912 	 1.616773 	 3.557322 	 0.811813 	 0.788813 	 0.581125 	 0.071000 	  
 11.853930 	 2.358754 	 6.276873 	 0.813562 	 0.790312 	 0.580125 	 0.050875 	  
 14.927180 	 3.666654 	 3.423703 	 0.812625 	 0.789000 	 0.579500 	 0.073563 	  
 13.724604 	 4.345756 	 7.998208 	 0.812125 	 0.789438 	 0.581375 	 0.071875 	  
 10.682793 	 6.093814 	 2.724165 	 0.812125 	 0.790938 	 0.581500 	 0.051750 	  
 9.181538 	 7.741265 	 3.407983 	 0.812875 	 0.789750 	 0.579875 	 0.069062 	  
 10.824273 	 8.671886 	 -0.058266 	 0.814750 	 0.791000 	 0.579937 	 0.037875 	  
 13.433785 	 10.331912 	 -1.072203 	 0.812250 	 0.790438 	 0.581562 	 0.060687 	  
 15.445938 	 10.960710 	 0.311153 	 0.814500 	 0.791438 	 0.580375 	 0.039625 	  
 16.035436 	 12.369218 	 1.230770 	 0.814688 	 0.791750 	 0.580063 	 0.031000 	  
 17.968990 	 13.563934 	 3.808841 	 0.814375 	 0.791750 	 0.580625 	 0.034438 	  
 17.937550 	 12.482401 	 5.938894 	 0.812063 	 0.790875 	 0.581375 	 0.050188 	  
 14.856440 	 10.331912 	 2.056067 	 0.812188 	 0.790063 	 0.581562 	 0.063625 	  
 13.142965 	 11.086470 	 8.461946 	 0.813125 	 0.789750 	 0.579875 	 0.066125 	  
 14.353402 	 11.011014 	 9.523043 	 0.814188 	 0.789938 	 0.579813 	 0.045812 	  
 16.923613 	 10.243881 	 8.139687 	 0.814250 	 0.790750 	 0.580187 	 0.045000 	  
 20.232662 	 11.249957 	 6.119674 	 0.811688 	 0.790438 	 0.581500 	 0.051875 	  
 19.713904 	 14.142428 	 7.503029 	 0.811562 	 0.788687 	 0.581187 	 0.070750 	  
 15.681737 	 15.123353 	 5.530176 	 0.811937 	 0.788375 	 0.580500 	 0.074313 	  
 10.714233 	 14.884410 	 8.383346 	 0.813500 	 0.788188 	 0.579500 	 0.072875 	  
 7.680283 	 13.614238 	 6.229713 	 0.813500 	 0.789188 	 0.579438 	 0.057188 	  
 6.312648 	 10.759495 	 4.822778 	 0.811250 	 0.788687 	 0.581000 	 0.057813 	  
 6.760666 	 7.829296 	 1.332949 	 0.811125 	 0.787062 	 0.580750 	 0.087000 	  
 7.295144 	 6.357909 	 6.929251 	 0.811250 	 0.786625 	 0.580063 	 0.091688 	  
 4.889992 	 4.710458 	 3.195763 	 0.812250 	 0.786875 	 0.579187 	 0.089500 	  
 1.085764 	 3.037856 	 6.434073 	 0.813125 	 0.786687 	 0.579375 	 0.073938 	  
 -3.142902 	 0.937671 	 4.956398 	 0.813188 	 0.786687 	 0.579250 	 0.085938 	  
 -1.775266 	 0.899943 	 6.992131 	 0.811438 	 0.786813 	 0.579813 	 0.087563 	  
 4.261194 	 2.949824 	 5.247217 	 0.811312 	 0.789063 	 0.580937 	 0.066187 	  
 6.611327 	 3.465439 	 7.385130 	 0.813375 	 0.787750 	 0.579438 	 0.061750 	  
 7.161525 	 2.710881 	 4.516239 	 0.811562 	 0.787188 	 0.579438 	 0.083250 	  
 8.709940 	 2.459362 	 4.948538 	 0.811375 	 0.789563 	 0.581187 	 0.059688 	  
 10.297655 	 3.641502 	 5.278657 	 0.813438 	 0.789687 	 0.580000 	 0.055875 	  
 10.706373 	 5.917751 	 8.265447 	 0.813937 	 0.789250 	 0.579688 	 0.051688 	  
 12.867866 	 5.741687 	 2.684865 	 0.811688 	 0.788938 	 0.581313 	 0.071625 	  
 16.900033 	 4.094236 	 5.648075 	 0.814063 	 0.789938 	 0.579625 	 0.052875 	  
 17.937550 	 4.257724 	 2.559105 	 0.812000 	 0.789563 	 0.581375 	 0.063500 	  
 18.566348 	 4.949402 	 0.295433 	 0.812000 	 0.791000 	 0.581500 	 0.050063 	  
 19.053666 	 4.295452 	 0.083213 	 0.814125 	 0.791438 	 0.580250 	 0.042875 	  
 15.493098 	 2.082083 	 -4.035413 	 0.814562 	 0.790375 	 0.580000 	 0.058688 	  
 10.902873 	 0.497512 	 -0.726364 	 0.813500 	 0.790063 	 0.579813 	 0.060750 	  
 9.472357 	 -0.445685 	 -3.445915 	 0.812250 	 0.790438 	 0.581625 	 0.064500 	  
 12.443428 	 1.214342 	 2.276146 	 0.812312 	 0.792250 	 0.581813 	 0.041250 	  
 14.840720 	 5.112889 	 9.185064 	 0.812188 	 0.792312 	 0.581937 	 0.037187 	  
 13.394485 	 6.320181 	 10.725619 	 0.812125 	 0.789938 	 0.581313 	 0.066625 	  
 13.158685 	 6.445941 	 10.859238 	 0.812438 	 0.790375 	 0.580063 	 0.065937 	  
 15.886097 	 10.243881 	 13.987508 	 0.814312 	 0.790250 	 0.579937 	 0.053937 	  
 16.923613 	 13.664542 	 10.992858 	 0.814125 	 0.791312 	 0.580000 	 0.043188 	  
 17.403072 	 14.155004 	 9.475883 	 0.813813 	 0.791625 	 0.580688 	 0.044562 	  
 16.679954 	 12.759072 	 9.216504 	 0.811875 	 0.791000 	 0.581500 	 0.060937 	  
 13.457364 	 12.696193 	 10.639159 	 0.811813 	 0.789063 	 0.580313 	 0.074250 	  
 10.195475 	 13.148927 	 9.106464 	 0.814063 	 0.789188 	 0.579688 	 0.055813 	  
 5.903929 	 12.193154 	 4.233280 	 0.813750 	 0.790375 	 0.579875 	 0.053500 	  
 1.470903 	 9.803722 	 3.714522 	 0.813250 	 0.789687 	 0.580375 	 0.055750 	  
 0.425527 	 7.275954 	 2.983544 	 0.811125 	 0.789625 	 0.581375 	 0.055563 	  
 6.029688 	 5.917751 	 -0.144726 	 0.811438 	 0.788750 	 0.581187 	 0.081187 	  
 10.399834 	 5.615928 	 4.319740 	 0.810875 	 0.787750 	 0.581187 	 0.087813 	  
 7.208685 	 6.219574 	 2.936384 	 0.811813 	 0.787813 	 0.579438 	 0.086063 	  
 0.386227 	 7.464594 	 3.085724 	 0.813125 	 0.787813 	 0.579500 	 0.077750 	  
 -5.382995 	 7.162771 	 2.716305 	 0.813188 	 0.787375 	 0.579500 	 0.079875 	  
 -8.692044 	 5.615928 	 4.516239 	 0.811375 	 0.787687 	 0.580500 	 0.088813 	  
 -4.982136 	 4.207420 	 3.557322 	 0.813375 	 0.790000 	 0.580063 	 0.053000 	  
 -0.124672 	 3.918173 	 -0.239046 	 0.811250 	 0.787750 	 0.581187 	 0.088438 	  
 1.934642 	 5.314105 	 6.724892 	 0.810937 	 0.789500 	 0.581250 	 0.063500 	  
 2.579160 	 8.873101 	 4.382619 	 0.811500 	 0.788125 	 0.581313 	 0.077875 	  
 2.814959 	 12.318914 	 5.530176 	 0.811625 	 0.788125 	 0.579813 	 0.082187 	  
 2.264761 	 12.708769 	 5.247217 	 0.811625 	 0.788375 	 0.581313 	 0.071313 	  
 2.131141 	 8.143695 	 2.708445 	 0.813750 	 0.789438 	 0.579813 	 0.055875 	  
 4.048975 	 3.817565 	 2.221126 	 0.811688 	 0.789750 	 0.581562 	 0.057375 	  
 8.890719 	 3.138464 	 0.641272 	 0.811875 	 0.790625 	 0.581688 	 0.053500 	  
 14.211922 	 6.043510 	 -2.400539 	 0.814125 	 0.791250 	 0.580250 	 0.040875 	  
 15.776057 	 7.791569 	 0.719871 	 0.814500 	 0.790188 	 0.579937 	 0.046312 	  
 15.343758 	 4.370908 	 3.329383 	 0.814500 	 0.791813 	 0.580375 	 0.036312 	  
 14.156902 	 0.057354 	 7.542329 	 0.814625 	 0.790813 	 0.580125 	 0.059688 	  
 12.254788 	 -1.803888 	 6.512673 	 0.812125 	 0.791563 	 0.581875 	 0.050750 	  
 11.311591 	 -1.929648 	 4.264720 	 0.814125 	 0.792063 	 0.581125 	 0.037437 	  
 13.418065 	 -2.130863 	 2.818484 	 0.813750 	 0.792125 	 0.581250 	 0.035188 	  
 15.469518 	 -1.577521 	 8.579846 	 0.812000 	 0.791625 	 0.581688 	 0.055875 	  
 15.964696 	 0.522664 	 8.611286 	 0.812125 	 0.789813 	 0.581500 	 0.068625 	  
 15.312318 	 5.389560 	 8.029648 	 0.813125 	 0.790000 	 0.580125 	 0.065625 	  
 13.622424 	 11.388293 	 8.485526 	 0.814438 	 0.790250 	 0.580125 	 0.050313 	  
 10.871433 	 13.702269 	 6.709172 	 0.814125 	 0.790813 	 0.580187 	 0.042438 	  
 9.102939 	 14.846682 	 7.620929 	 0.813000 	 0.791000 	 0.581250 	 0.048813 	  
 8.246201 	 16.506708 	 15.142925 	 0.811625 	 0.790250 	 0.581688 	 0.065750 	  
 7.688143 	 17.047475 	 7.888168 	 0.811750 	 0.788813 	 0.581562 	 0.073938 	  
 9.165818 	 15.701847 	 5.042857 	 0.812312 	 0.788563 	 0.579875 	 0.071000 	  
 11.146532 	 13.035744 	 7.550189 	 0.813688 	 0.788188 	 0.579813 	 0.057438 	  
 8.937879 	 9.049164 	 5.152897 	 0.813500 	 0.789250 	 0.580063 	 0.057125 	  
 6.006109 	 8.508398 	 6.025354 	 0.811312 	 0.789188 	 0.581438 	 0.065437 	  
 5.534510 	 11.262533 	 6.489093 	 0.811063 	 0.787000 	 0.581187 	 0.090188 	  
 3.569516 	 13.790301 	 2.449066 	 0.811375 	 0.786938 	 0.579813 	 0.083937 	  
 0.205447 	 13.601662 	 2.842064 	 0.813312 	 0.787125 	 0.579625 	 0.081750 	  
 0.755646 	 12.595585 	 5.600915 	 0.813250 	 0.787813 	 0.579750 	 0.062437 	  
 0.472686 	 10.872679 	 12.038235 	 0.813375 	 0.787375 	 0.579500 	 0.072688 	  
 -2.349044 	 7.376562 	 3.730242 	 0.811250 	 0.787750 	 0.581375 	 0.077750 	  
 -1.704526 	 5.653655 	 0.342592 	 0.813375 	 0.789125 	 0.579750 	 0.058500 	  
 5.031472 	 6.081238 	 -0.875704 	 0.813500 	 0.788375 	 0.579813 	 0.061625 	  
 13.968263 	 7.464594 	 5.286516 	 0.813500 	 0.788563 	 0.579750 	 0.054187 	  
 18.204789 	 8.973709 	 11.660956 	 0.812500 	 0.788188 	 0.579813 	 0.083500 	  
 16.656374 	 8.181423 	 7.581629 	 0.813688 	 0.789750 	 0.580313 	 0.055625 	  
 9.071499 	 5.376984 	 -3.909654 	 0.812063 	 0.788563 	 0.581375 	 0.077438 	  
 4.159015 	 3.566046 	 -1.465202 	 0.811500 	 0.788687 	 0.581688 	 0.071375 	  
 10.384114 	 5.200921 	 2.386186 	 0.812000 	 0.790500 	 0.581625 	 0.057688 	  
 22.512055 	 8.156271 	 0.845631 	 0.812188 	 0.791375 	 0.581875 	 0.044437 	  
 26.347723 	 7.577777 	 -1.826760 	 0.812312 	 0.790813 	 0.581813 	 0.057875 	  
 21.238739 	 4.006205 	 1.395829 	 0.812188 	 0.790063 	 0.581813 	 0.068437 	  
 15.956836 	 3.767262 	 -1.504502 	 0.812562 	 0.792312 	 0.582063 	 0.038750 	  
 14.164762 	 5.691383 	 0.389752 	 0.813125 	 0.790125 	 0.580438 	 0.065500 	  
 14.094022 	 4.987130 	 3.148603 	 0.812438 	 0.791813 	 0.582000 	 0.047313 	  
 15.917536 	 3.666654 	 2.732025 	 0.812937 	 0.791938 	 0.581813 	 0.038687 	  
 19.847524 	 4.685307 	 4.319740 	 0.812250 	 0.791938 	 0.582125 	 0.045937 	  
 19.651024 	 7.011859 	 8.721325 	 0.812125 	 0.789063 	 0.581813 	 0.069437 	  
 15.956836 	 9.288108 	 9.916042 	 0.813562 	 0.790063 	 0.580313 	 0.061750 	  
 12.993626 	 12.796800 	 15.009305 	 0.814562 	 0.790750 	 0.580250 	 0.044250 	  
 10.454854 	 13.903485 	 11.157917 	 0.813750 	 0.791188 	 0.580937 	 0.048500 	  
 9.071499 	 11.991939 	 9.546623 	 0.812188 	 0.791063 	 0.581875 	 0.053750 	  
 11.453071 	 10.331912 	 8.925685 	 0.812000 	 0.789500 	 0.581750 	 0.071063 	  
 15.862517 	 10.181001 	 7.495169 	 0.811937 	 0.789000 	 0.580813 	 0.074250 	  
 15.406638 	 9.514475 	 7.589489 	 0.814125 	 0.788875 	 0.580125 	 0.061937 	  
 10.612054 	 8.294607 	 8.328327 	 0.813875 	 0.790188 	 0.580187 	 0.056750 	  
 3.836756 	 7.992784 	 6.779912 	 0.811500 	 0.789563 	 0.581500 	 0.060937 	  
 -0.737750 	 7.477170 	 5.050717 	 0.811375 	 0.788000 	 0.581625 	 0.086250 	  
 -0.973549 	 7.439442 	 2.637705 	 0.811875 	 0.787625 	 0.579750 	 0.089813 	  
 1.164364 	 7.326258 	 6.048934 	 0.813312 	 0.787500 	 0.579688 	 0.071125 	  
 3.145078 	 6.307605 	 -1.551661 	 0.813500 	 0.788875 	 0.579813 	 0.061500 	  
 2.626319 	 2.559969 	 1.042130 	 0.813438 	 0.788875 	 0.579937 	 0.061687 	  
 0.386227 	 -2.709357 	 -0.970023 	 0.813188 	 0.788500 	 0.579750 	 0.058875 	  
 -3.630220 	 -4.457416 	 4.099660 	 0.812312 	 0.787813 	 0.579625 	 0.087250 	  
 -7.230089 	 -1.967376 	 4.311880 	 0.811250 	 0.789687 	 0.581562 	 0.056938 	  
 -7.308688 	 -0.709780 	 4.752038 	 0.813750 	 0.789312 	 0.579937 	 0.057125 	  
 -2.081805 	 -1.741009 	 4.602699 	 0.813438 	 0.789250 	 0.580000 	 0.054437 	  
 5.510930 	 -2.445262 	 5.113597 	 0.813125 	 0.788438 	 0.579750 	 0.080250 	  
 10.022556 	 -2.017680 	 4.681298 	 0.813500 	 0.790188 	 0.580438 	 0.056125 	  
 9.676717 	 -1.363730 	 11.456597 	 0.814000 	 0.789188 	 0.580000 	 0.053750 	  
 7.939662 	 -1.200242 	 3.981761 	 0.814063 	 0.789063 	 0.580187 	 0.061437 	  
 5.691710 	 -1.879344 	 4.217560 	 0.813750 	 0.789000 	 0.580063 	 0.069062 	  
 5.683850 	 -2.093135 	 5.514456 	 0.812625 	 0.789687 	 0.581625 	 0.072750 	  
 9.055779 	 0.346601 	 -2.141159 	 0.812125 	 0.790125 	 0.582000 	 0.065750 	  
 12.270508 	 0.849639 	 0.704151 	 0.814438 	 0.791500 	 0.580813 	 0.041438 	  
 13.237285 	 -0.961299 	 0.460492 	 0.814813 	 0.790875 	 0.580625 	 0.050688 	  
 12.411988 	 -0.873267 	 2.881364 	 0.812750 	 0.790563 	 0.581813 	 0.069312 	  
 10.344815 	 -1.917072 	 5.530176 	 0.812500 	 0.792188 	 0.582125 	 0.040375 	  
 14.196202 	 -1.338578 	 6.929251 	 0.814750 	 0.791438 	 0.580562 	 0.039875 	  
 24.799308 	 3.088160 	 14.577006 	 0.814875 	 0.791563 	 0.580438 	 0.040938 	  
 31.959745 	 6.948979 	 8.768485 	 0.813562 	 0.791750 	 0.581562 	 0.048188 	  
 30.238410 	 7.426866 	 2.236846 	 0.812375 	 0.790125 	 0.582000 	 0.062688 	  
 22.669255 	 6.118966 	 2.425486 	 0.812688 	 0.789687 	 0.580500 	 0.065375 	  
 14.439861 	 5.213497 	 0.759171 	 0.814562 	 0.789750 	 0.580313 	 0.062375 	  
 10.502014 	 6.206998 	 -0.317645 	 0.814375 	 0.790625 	 0.580500 	 0.042563 	  
 12.867866 	 10.507976 	 -1.001463 	 0.814000 	 0.790813 	 0.581063 	 0.046125 	  
 16.962913 	 12.897408 	 7.644509 	 0.811875 	 0.790250 	 0.581937 	 0.063188 	  
 17.992570 	 13.589086 	 10.898538 	 0.812000 	 0.788563 	 0.581688 	 0.075313 	  
 15.783917 	 14.431675 	 8.524826 	 0.814063 	 0.788813 	 0.580063 	 0.065625 	  
 11.091512 	 16.041398 	 11.896755 	 0.813813 	 0.789188 	 0.580125 	 0.056063 	  
 3.781736 	 15.337144 	 9.075024 	 0.813188 	 0.789250 	 0.580875 	 0.057688 	  
 2.060401 	 14.318491 	 11.747416 	 0.811562 	 0.788625 	 0.581625 	 0.069750 	  
 5.055052 	 14.922137 	 11.440877 	 0.811500 	 0.786875 	 0.581000 	 0.089438 	  
 6.878566 	 17.613393 	 10.183281 	 0.812500 	 0.787375 	 0.579813 	 0.089063 	  
 3.341577 	 18.468558 	 8.399066 	 0.813750 	 0.787813 	 0.579688 	 0.064187 	  
 -3.842440 	 14.393947 	 4.256860 	 0.813312 	 0.788250 	 0.579875 	 0.059250 	  
 -7.882466 	 9.740842 	 2.771325 	 0.813875 	 0.787438 	 0.579813 	 0.073625 	  
 -6.876390 	 9.439019 	 2.362606 	 0.811625 	 0.789938 	 0.581625 	 0.062125 	  
 -4.895676 	 10.218729 	 4.909238 	 0.813625 	 0.788312 	 0.579813 	 0.063125 	  
 -3.630220 	 9.564779 	 8.815645 	 0.813875 	 0.788125 	 0.579937 	 0.060375 	  
 -0.061792 	 7.653233 	 1.780968 	 0.813875 	 0.789500 	 0.580125 	 0.053375 	  
 4.221894 	 6.596852 	 2.967824 	 0.813625 	 0.788250 	 0.579937 	 0.076938 	  
 6.540587 	 4.458939 	 2.433346 	 0.811813 	 0.788250 	 0.581688 	 0.077875 	  
 6.524867 	 2.471938 	 0.452632 	 0.812688 	 0.789000 	 0.580063 	 0.077250 	  
 6.147588 	 2.396482 	 0.845631 	 0.814250 	 0.789000 	 0.580125 	 0.062375 	  
 6.823546 	 3.478014 	 -0.797104 	 0.814312 	 0.790500 	 0.580375 	 0.050438 	  
 8.206901 	 3.415135 	 -4.436272 	 0.814250 	 0.790000 	 0.580375 	 0.066812 	  
 11.099372 	 2.207843 	 2.967824 	 0.814438 	 0.791750 	 0.580500 	 0.041375 	  
 14.463441 	 1.503589 	 5.530176 	 0.813312 	 0.790312 	 0.580438 	 0.060312 	  
 18.865027 	 3.679230 	 8.210427 	 0.814875 	 0.791188 	 0.580562 	 0.062062 	  
 18.244089 	 6.948979 	 5.718815 	 0.814688 	 0.790563 	 0.580500 	 0.065687 	  
 14.675660 	 6.609428 	 5.365116 	 0.812625 	 0.790375 	 0.581562 	 0.062750 	  
 15.485238 	 6.584276 	 1.152170 	 0.812937 	 0.790125 	 0.582000 	 0.063438 	  
 19.729624 	 8.458094 	 4.964258 	 0.812375 	 0.789938 	 0.582187 	 0.065562 	  
 19.816084 	 9.791146 	 8.053228 	 0.813188 	 0.789625 	 0.580313 	 0.067937 	  
 15.933256 	 11.576932 	 6.583412 	 0.814625 	 0.790625 	 0.580438 	 0.046125 	  
 12.663507 	 14.947289 	 6.701312 	 0.814500 	 0.791500 	 0.580937 	 0.042063 	  
 9.283718 	 16.557012 	 6.221853 	 0.812063 	 0.790813 	 0.582000 	 0.051063 	  
 7.774603 	 17.500209 	 4.752038 	 0.812125 	 0.788813 	 0.582000 	 0.066937 	  
 6.799966 	 18.870989 	 6.551972 	 0.812562 	 0.789188 	 0.580625 	 0.075813 	  
 4.937152 	 18.506286 	 5.427996 	 0.814188 	 0.789250 	 0.580250 	 0.068250 	  
 2.728499 	 17.336722 	 4.115380 	 0.814188 	 0.790188 	 0.580125 	 0.057688 	  
 2.115421 	 18.644621 	 5.561616 	 0.813312 	 0.789625 	 0.581000 	 0.055438 	  
 2.877839 	 21.159813 	 6.221853 	 0.811750 	 0.789500 	 0.581625 	 0.067312 	  
 3.687416 	 21.939523 	 3.117164 	 0.811625 	 0.788000 	 0.581625 	 0.080187 	  
 2.657759 	 19.285995 	 3.384403 	 0.811688 	 0.787563 	 0.579937 	 0.090500 	  
 2.319780 	 14.859258 	 0.861351 	 0.813562 	 0.788188 	 0.580000 	 0.077625 	  
 3.035038 	 11.677540 	 0.924231 	 0.813500 	 0.788563 	 0.579875 	 0.062437 	  
 3.058618 	 8.546126 	 2.166107 	 0.813500 	 0.788750 	 0.579937 	 0.054312 	  
 2.712779 	 5.905175 	 9.295104 	 0.813625 	 0.788500 	 0.580063 	 0.063500 	  
 1.879622 	 7.024435 	 5.341536 	 0.812312 	 0.788125 	 0.579937 	 0.081125 	  
 1.046465 	 8.998861 	 5.341536 	 0.812688 	 0.790125 	 0.580875 	 0.060187 	  
 2.154721 	 9.564779 	 4.924958 	 0.813813 	 0.788438 	 0.579875 	 0.058563 	  
 6.289068 	 7.841872 	 7.094311 	 0.813750 	 0.789250 	 0.580187 	 0.053562 	  
 9.771036 	 5.817143 	 3.840281 	 0.812688 	 0.788813 	 0.579875 	 0.081375 	  
 11.036492 	 3.716958 	 3.620202 	 0.813813 	 0.790500 	 0.580562 	 0.054125 	  
 9.016479 	 0.459784 	 3.816701 	 0.812562 	 0.789813 	 0.580813 	 0.077500 	  
 9.228698 	 -4.293928 	 4.862078 	 0.812000 	 0.789438 	 0.581875 	 0.075750 	  
 11.688870 	 -6.884576 	 4.296160 	 0.813125 	 0.789813 	 0.580250 	 0.070500 	  
 14.227642 	 -6.658209 	 8.768485 	 0.812500 	 0.790750 	 0.581375 	 0.067312 	  
 18.739267 	 -1.891920 	 2.118947 	 0.814688 	 0.791625 	 0.580500 	 0.042813 	  
 19.344485 	 3.893021 	 1.812408 	 0.812750 	 0.790188 	 0.580750 	 0.069625 	  
 16.852873 	 7.489745 	 2.386186 	 0.812813 	 0.792375 	 0.582438 	 0.049750 	  
 15.320178 	 8.520974 	 4.162540 	 0.814875 	 0.791250 	 0.580562 	 0.046750 	  
 13.535964 	 7.087315 	 2.700585 	 0.812500 	 0.790813 	 0.582125 	 0.060000 	  
 14.101882 	 3.540894 	 3.337243 	 0.812813 	 0.792312 	 0.582375 	 0.041500 	  
 16.829294 	 1.704804 	 5.404416 	 0.812562 	 0.792188 	 0.582500 	 0.042250 	  
 18.762847 	 3.415135 	 6.504813 	 0.812250 	 0.789625 	 0.581937 	 0.070125 	  
 19.808224 	 7.980208 	 7.903888 	 0.813813 	 0.790938 	 0.580625 	 0.066062 	  
 20.995080 	 12.645889 	 10.764919 	 0.814562 	 0.790938 	 0.580688 	 0.042250 	  
 18.338409 	 12.256034 	 6.583412 	 0.814562 	 0.791875 	 0.580688 	 0.044000 	  
 15.178699 	 9.275532 	 8.006068 	 0.812188 	 0.791312 	 0.582063 	 0.051625 	  
 13.355185 	 8.973709 	 9.043584 	 0.812438 	 0.789875 	 0.581750 	 0.068250 	  
 13.378765 	 11.249957 	 12.769212 	 0.812188 	 0.789125 	 0.580937 	 0.072875 	  
 13.072226 	 10.834951 	 7.455869 	 0.814125 	 0.789438 	 0.580187 	 0.069125 	  
 11.736030 	 8.093392 	 9.326543 	 0.814125 	 0.790063 	 0.580187 	 0.055500 	  
 10.502014 	 7.376562 	 5.034997 	 0.813625 	 0.789938 	 0.580625 	 0.057500 	  
 7.483784 	 7.062163 	 3.557322 	 0.811562 	 0.789563 	 0.581562 	 0.065000 	  
 1.305844 	 6.408213 	 5.050717 	 0.811562 	 0.788000 	 0.581500 	 0.086625 	  
 -4.314038 	 5.314105 	 11.605936 	 0.811875 	 0.787312 	 0.579875 	 0.086563 	  
 -2.474804 	 4.936826 	 5.034997 	 0.813438 	 0.787813 	 0.580000 	 0.084125 	  
 4.355514 	 5.968054 	 7.110031 	 0.813500 	 0.788250 	 0.579875 	 0.056000 	  
 7.271564 	 6.471093 	 4.720598 	 0.813500 	 0.788062 	 0.580000 	 0.061625 	  
 3.569516 	 5.703959 	 2.865644 	 0.811750 	 0.787750 	 0.580688 	 0.083000 	  
 -0.211131 	 3.880445 	 3.518022 	 0.812250 	 0.790375 	 0.580937 	 0.057375 	  
 -2.349044 	 1.289798 	 3.525882 	 0.813750 	 0.789125 	 0.579875 	 0.057625 	  
 -1.115028 	 1.088582 	 2.645565 	 0.813688 	 0.789500 	 0.580063 	 0.055375 	  
 3.514497 	 1.277222 	 -0.553445 	 0.813063 	 0.788438 	 0.580063 	 0.079688 	  
 5.597390 	 -1.237970 	 -0.718504 	 0.811937 	 0.788250 	 0.581688 	 0.077625 	  
 1.832462 	 -4.671207 	 3.895301 	 0.812000 	 0.788312 	 0.580937 	 0.077500 	  
 -0.926389 	 -4.985606 	 -0.702784 	 0.814500 	 0.789125 	 0.580063 	 0.059000 	  
 0.307627 	 -2.369807 	 -0.364805 	 0.814250 	 0.790188 	 0.580375 	 0.050500 	  
 3.412317 	 -1.212818 	 -2.188319 	 0.814188 	 0.789563 	 0.580250 	 0.071125 	  
 10.800693 	 -2.571022 	 -1.928940 	 0.814438 	 0.791125 	 0.580750 	 0.041063 	  
 21.749638 	 -3.866346 	 2.959964 	 0.814500 	 0.789250 	 0.580375 	 0.067625 	  
 30.356310 	 -2.520718 	 1.002830 	 0.812813 	 0.790000 	 0.582125 	 0.058375 	  
 31.716085 	 1.377829 	 4.704878 	 0.812562 	 0.791312 	 0.582125 	 0.045625 	  
 28.186957 	 4.723034 	 4.390479 	 0.814813 	 0.791813 	 0.580625 	 0.035750 	  
 24.060470 	 5.980630 	 4.932818 	 0.814875 	 0.790312 	 0.580562 	 0.043375 	  
 22.001157 	 7.376562 	 9.122184 	 0.815063 	 0.790938 	 0.580562 	 0.039688 	  
 22.779294 	 9.074316 	 7.982488 	 0.814500 	 0.791312 	 0.580875 	 0.035750 	  
 22.818594 	 13.199231 	 6.740612 	 0.812562 	 0.791500 	 0.582063 	 0.044937 	  
 21.364499 	 18.657197 	 4.343320 	 0.812250 	 0.789625 	 0.582000 	 0.064437 	  
 14.785700 	 21.109509 	 -0.073986 	 0.812937 	 0.789875 	 0.580438 	 0.070062 	  
 4.591313 	 18.091279 	 1.387969 	 0.814562 	 0.789625 	 0.580250 	 0.062125 	  
 -0.989269 	 15.311992 	 1.891007 	 0.814625 	 0.790375 	 0.580438 	 0.052437 	  
 1.753862 	 15.161081 	 6.481233 	 0.813813 	 0.790625 	 0.581000 	 0.048688 	  
 7.696003 	 14.570011 	 3.494442 	 0.812125 	 0.790500 	 0.582000 	 0.056813 	  
 12.089729 	 13.576510 	 3.070004 	 0.812000 	 0.788750 	 0.581750 	 0.074063 	  
 10.934313 	 11.149350 	 10.411220 	 0.812375 	 0.788000 	 0.580063 	 0.085375 	  
 6.265488 	 7.401714 	 6.269013 	 0.813813 	 0.788188 	 0.580063 	 0.066375 	  
 1.690983 	 5.942903 	 5.608775 	 0.813875 	 0.789438 	 0.580125 	 0.055188 	  
 -1.908886 	 8.432942 	 6.536252 	 0.813438 	 0.788750 	 0.580438 	 0.061187 	  
 -3.818860 	 11.941635 	 4.783478 	 0.811438 	 0.789000 	 0.581562 	 0.068312 	  
 -2.466944 	 13.677117 	 4.563399 	 0.811500 	 0.786875 	 0.581500 	 0.083187 	  
 -2.679163 	 12.256034 	 9.436583 	 0.811438 	 0.786563 	 0.581375 	 0.088063 	  
 -4.636297 	 10.596007 	 7.227930 	 0.811312 	 0.787062 	 0.581750 	 0.070125 	  
 -4.321898 	 10.080393 	 4.162540 	 0.813875 	 0.789125 	 0.580250 	 0.052625 	  
 -3.127182 	 10.030089 	 4.579119 	 0.812250 	 0.787125 	 0.579937 	 0.087125 	  
 -3.150762 	 7.376562 	 7.440150 	 0.813562 	 0.788750 	 0.580375 	 0.058188 	  
 -2.207565 	 3.465439 	 3.376543 	 0.814000 	 0.787938 	 0.580000 	 0.061375 	  
 1.698842 	 2.710881 	 5.687375 	 0.814000 	 0.789125 	 0.580187 	 0.055188 	  
 5.361591 	 4.760762 	 12.336914 	 0.813937 	 0.788750 	 0.580125 	 0.053187 	  
 8.599900 	 5.490168 	 7.927468 	 0.812063 	 0.788188 	 0.581750 	 0.072625 	  
 9.095079 	 4.069085 	 5.514456 	 0.812063 	 0.790312 	 0.581937 	 0.055875 	  
 6.965025 	 1.402981 	 0.122513 	 0.814063 	 0.790625 	 0.581000 	 0.053937 	  
 7.295144 	 0.271145 	 -2.683498 	 0.813000 	 0.789563 	 0.580813 	 0.074500 	  
 14.416281 	 3.075584 	 0.350452 	 0.812375 	 0.790438 	 0.582125 	 0.054000 	  
 20.830021 	 5.766839 	 5.506596 	 0.814875 	 0.791687 	 0.580937 	 0.035938 	  
 21.647458 	 5.540472 	 6.064654 	 0.812875 	 0.790312 	 0.582187 	 0.062813 	  
 16.939333 	 2.421634 	 -0.176166 	 0.815000 	 0.791563 	 0.580875 	 0.038625 	  
 10.627774 	 -0.043254 	 -0.639904 	 0.814875 	 0.790875 	 0.580625 	 0.039438 	  
 11.508091 	 0.824487 	 2.716305 	 0.814875 	 0.791625 	 0.580688 	 0.037375 	  
 17.976850 	 2.949824 	 7.094311 	 0.812688 	 0.791063 	 0.581875 	 0.046000 	  
 22.512055 	 3.779838 	 11.739556 	 0.812375 	 0.789438 	 0.582125 	 0.065687 	  
 22.763574 	 4.710458 	 9.310823 	 0.813125 	 0.789625 	 0.580375 	 0.069500 	  
 20.154063 	 7.514897 	 7.117891 	 0.814562 	 0.789375 	 0.580500 	 0.059938 	  
 15.508818 	 7.489745 	 4.579119 	 0.814625 	 0.790250 	 0.580375 	 0.048938 	  
 10.667073 	 5.930327 	 4.571259 	 0.813875 	 0.790500 	 0.581500 	 0.044250 	  
 7.538804 	 6.571700 	 11.181497 	 0.812188 	 0.790063 	 0.582063 	 0.058688 	  
 6.949305 	 9.074316 	 6.096094 	 0.812125 	 0.788188 	 0.582000 	 0.070750 	  
 10.580614 	 11.727844 	 5.577336 	 0.813375 	 0.787938 	 0.580313 	 0.075063 	  
 13.205845 	 13.689693 	 7.165050 	 0.814063 	 0.788125 	 0.580250 	 0.057625 	  
 11.791050 	 12.583009 	 3.062144 	 0.813937 	 0.789063 	 0.580875 	 0.058125 	  
 7.224405 	 10.759495 	 6.048934 	 0.811688 	 0.788813 	 0.581750 	 0.063750 	  
 2.681339 	 10.067817 	 6.088234 	 0.811500 	 0.786312 	 0.581375 	 0.090188 	  
 0.409807 	 9.904330 	 3.911021 	 0.813625 	 0.786375 	 0.580125 	 0.074813 	  
 3.050758 	 10.533128 	 3.565182 	 0.813562 	 0.787312 	 0.580000 	 0.066750 	  
 6.021829 	 11.325413 	 5.506596 	 0.813562 	 0.788188 	 0.580313 	 0.059063 	  
 6.100428 	 11.099046 	 9.923901 	 0.813562 	 0.787062 	 0.580063 	 0.058688 	  
 5.558090 	 11.048742 	 4.948538 	 0.812000 	 0.786500 	 0.581250 	 0.082500 	  
 5.180811 	 11.073894 	 3.392263 	 0.813688 	 0.788500 	 0.580438 	 0.060500 	  
 2.783519 	 8.319759 	 2.975684 	 0.814000 	 0.787062 	 0.580125 	 0.063063 	  
 0.582726 	 6.244726 	 3.620202 	 0.813937 	 0.787687 	 0.580125 	 0.054750 	  
 0.708486 	 6.269877 	 5.852435 	 0.812312 	 0.787375 	 0.580688 	 0.082437 	  
 4.607033 	 5.553048 	 -0.207606 	 0.814000 	 0.789063 	 0.580375 	 0.054125 	  
 7.963242 	 4.936826 	 3.415843 	 0.812063 	 0.787938 	 0.582063 	 0.073250 	  
 8.709940 	 4.194844 	 8.163267 	 0.812312 	 0.789000 	 0.581937 	 0.064062 	  
 7.994682 	 4.609851 	 7.793848 	 0.812063 	 0.790125 	 0.582250 	 0.054375 	  
 7.758883 	 5.439864 	 7.683809 	 0.814937 	 0.789438 	 0.580562 	 0.060187 	  
 8.238341 	 5.276377 	 0.208973 	 0.812750 	 0.789000 	 0.581375 	 0.067625 	  
 7.271564 	 2.811489 	 0.114653 	 0.812562 	 0.790563 	 0.582187 	 0.051938 	  
 6.509147 	 0.359177 	 -2.997897 	 0.813562 	 0.789750 	 0.581000 	 0.062250 	  
 7.845343 	 0.132809 	 2.692725 	 0.812875 	 0.790813 	 0.582250 	 0.040125 	  
 9.480217 	 0.560392 	 6.394773 	 0.814937 	 0.790687 	 0.580688 	 0.040813 	  
 10.761393 	 2.761185 	 8.265447 	 0.814625 	 0.789875 	 0.580875 	 0.059250 	  
 12.561327 	 6.596852 	 7.856728 	 0.815063 	 0.789438 	 0.580625 	 0.054750 	  
 15.697457 	 7.867024 	 9.389423 	 0.814500 	 0.789875 	 0.580750 	 0.047063 	  
 17.725331 	 9.313260 	 5.907454 	 0.812875 	 0.790500 	 0.582313 	 0.042500 	  
 17.151552 	 13.928637 	 10.576279 	 0.812500 	 0.788813 	 0.582375 	 0.067062 	  
 13.818923 	 15.978518 	 9.813862 	 0.813125 	 0.788938 	 0.580625 	 0.070875 	  
 9.495937 	 14.444251 	 6.520532 	 0.814625 	 0.788875 	 0.580562 	 0.063813 	  
 6.477707 	 12.633313 	 2.842064 	 0.814562 	 0.789625 	 0.580625 	 0.051688 	  
 7.648843 	 13.601662 	 -0.207606 	 0.813937 	 0.789687 	 0.581313 	 0.051375 	  
 12.663507 	 13.312415 	 0.429052 	 0.812063 	 0.789625 	 0.582187 	 0.056313 	  
 17.678171 	 10.558280 	 2.834204 	 0.812188 	 0.788312 	 0.581937 	 0.072563 	  
 20.924340 	 10.382216 	 4.610559 	 0.812312 	 0.787188 	 0.580250 	 0.080812 	  
 23.911131 	 11.903907 	 7.243650 	 0.814188 	 0.787188 	 0.580187 	 0.062563 	  
 21.993297 	 10.092969 	 5.577336 	 0.813750 	 0.788625 	 0.580313 	 0.065312 	  
 15.760337 	 5.766839 	 12.376214 	 0.811937 	 0.787813 	 0.581438 	 0.063313 	  
 13.724604 	 2.409058 	 3.973901 	 0.811562 	 0.787625 	 0.581688 	 0.073875 	  
 16.640654 	 3.075584 	 1.372249 	 0.811625 	 0.786438 	 0.581562 	 0.089438 	  
 16.624934 	 4.119388 	 3.455142 	 0.811500 	 0.787000 	 0.581625 	 0.074625 	  
 10.910733 	 4.056509 	 3.793121 	 0.813688 	 0.788188 	 0.580438 	 0.063250 	  
 2.885699 	 2.056931 	 0.429052 	 0.812063 	 0.787125 	 0.581750 	 0.082125 	  
 -2.128965 	 -1.954800 	 2.354746 	 0.813750 	 0.788312 	 0.580438 	 0.057500 	  
 -4.604857 	 -4.734087 	 4.469079 	 0.814063 	 0.787438 	 0.580250 	 0.060562 	  
 -1.508027 	 -5.224549 	 6.001774 	 0.814000 	 0.788875 	 0.580562 	 0.051938 	  
 2.484840 	 -5.727588 	 4.602699 	 0.814312 	 0.787500 	 0.580125 	 0.072125 	  
 3.058618 	 -4.708935 	 9.585923 	 0.812438 	 0.787813 	 0.581187 	 0.075750 	  
 0.708486 	 -2.143439 	 2.692725 	 0.813438 	 0.788062 	 0.580375 	 0.077438 	  
 0.834245 	 1.327525 	 5.042857 	 0.814500 	 0.788938 	 0.580500 	 0.049563 	  
 3.294417 	 4.471515 	 5.710955 	 0.814000 	 0.788813 	 0.580625 	 0.071000 	  
 5.848909 	 6.131542 	 0.963530 	 0.814750 	 0.790813 	 0.581000 	 0.040813 	  
 8.246201 	 6.295029 	 -0.105426 	 0.814813 	 0.789375 	 0.580625 	 0.065750 	  
 11.696730 	 5.465016 	 0.994970 	 0.813125 	 0.790125 	 0.582438 	 0.064187 	  
 15.052939 	 5.842295 	 4.044641 	 0.815000 	 0.790687 	 0.580813 	 0.040813 	  
 16.011856 	 7.791569 	 4.704878 	 0.813063 	 0.789625 	 0.582250 	 0.067250 	  
 15.194419 	 8.256879 	 7.974628 	 0.812813 	 0.789875 	 0.582375 	 0.058875 	  
 14.172622 	 8.810221 	 14.199728 	 0.813063 	 0.789312 	 0.582313 	 0.062875 	  
 15.312318 	 10.910406 	 10.332620 	 0.813188 	 0.789438 	 0.580875 	 0.071875 	  
 17.403072 	 14.884410 	 9.012144 	 0.815000 	 0.790125 	 0.580875 	 0.047438 	  
 18.487748 	 19.260843 	 14.270467 	 0.814813 	 0.791000 	 0.581063 	 0.040000 	  
 15.956836 	 21.449060 	 7.754548 	 0.812500 	 0.790125 	 0.582375 	 0.049563 	  
 11.484511 	 21.147237 	 8.823505 	 0.812875 	 0.788500 	 0.582187 	 0.065875 	  
 6.367667 	 21.801187 	 6.111814 	 0.812875 	 0.788687 	 0.581250 	 0.076125 	  
 3.113638 	 22.367105 	 6.151114 	 0.814188 	 0.787938 	 0.580375 	 0.071438 	  
 3.113638 	 20.229192 	 5.585196 	 0.814562 	 0.789000 	 0.580688 	 0.052375 	  
 6.068988 	 15.550935 	 8.006068 	 0.814562 	 0.789687 	 0.580750 	 0.053375 	  
 9.488077 	 10.809799 	 10.474100 	 0.812063 	 0.789000 	 0.581875 	 0.057688 	  
 7.766743 	 9.086892 	 4.249000 	 0.812000 	 0.787625 	 0.581875 	 0.081062 	  
 3.262977 	 10.432520 	 2.810625 	 0.812188 	 0.787687 	 0.581500 	 0.082125 	  
 1.698842 	 12.972864 	 8.564126 	 0.812500 	 0.786875 	 0.580250 	 0.091250 	  
 2.461260 	 13.903485 	 6.787772 	 0.813937 	 0.787500 	 0.580250 	 0.060187 	  
 6.658486 	 13.551358 	 4.264720 	 0.813875 	 0.788500 	 0.580500 	 0.058750 	  
 9.503797 	 12.117699 	 3.738102 	 0.813937 	 0.788312 	 0.580562 	 0.061062 	  
 7.892502 	 7.867024 	 5.703095 	 0.814063 	 0.786750 	 0.580375 	 0.076313 	  
 4.103995 	 2.924672 	 2.865644 	 0.812125 	 0.788938 	 0.582000 	 0.062625 	  
 2.390520 	 -0.785236 	 2.566965 	 0.813875 	 0.787938 	 0.580375 	 0.057000 	  
 1.062185 	 -1.351154 	 4.869938 	 0.814063 	 0.787563 	 0.580313 	 0.061312 	  
 1.730282 	 1.478437 	 1.262210 	 0.814250 	 0.788875 	 0.580625 	 0.053125 	  
 5.094352 	 5.779415 	 0.366172 	 0.814312 	 0.787938 	 0.580375 	 0.083375 	  
 8.717800 	 7.540049 	 4.099660 	 0.812312 	 0.789750 	 0.581813 	 0.055375 	  
 9.991116 	 4.521819 	 5.718815 	 0.813188 	 0.788625 	 0.580688 	 0.079438 	  
 11.940389 	 0.585544 	 1.277929 	 0.812438 	 0.788312 	 0.582063 	 0.072750 	  
 13.740324 	 -1.124787 	 1.498009 	 0.814875 	 0.788875 	 0.580750 	 0.054813 	  
 13.394485 	 0.384329 	 -0.624184 	 0.814000 	 0.789188 	 0.580688 	 0.074000 	  
 11.736030 	 2.132387 	 -1.119363 	 0.812875 	 0.789438 	 0.582500 	 0.064937 	  
 10.454854 	 2.610273 	 -1.803181 	 0.815188 	 0.791063 	 0.581438 	 0.038312 	  
 13.512384 	 3.176191 	 2.724165 	 0.813000 	 0.790625 	 0.582750 	 0.053500 	  
 16.184776 	 3.063008 	 1.985327 	 0.815125 	 0.790250 	 0.581000 	 0.038062 	  
 15.296598 	 3.704382 	 0.067493 	 0.814312 	 0.790000 	 0.580937 	 0.066687 	  
 13.017206 	 5.615928 	 3.887441 	 0.815312 	 0.790125 	 0.581125 	 0.048688 	  
 9.315158 	 7.049587 	 4.508379 	 0.815312 	 0.791312 	 0.580875 	 0.050188 	  
 5.715289 	 5.263801 	 6.237573 	 0.813750 	 0.790438 	 0.582125 	 0.043625 	  
 6.336227 	 4.094236 	 4.901378 	 0.812937 	 0.790563 	 0.582500 	 0.054125 	  
 12.176189 	 4.760762 	 4.838498 	 0.812875 	 0.789125 	 0.582500 	 0.066625 	  
 15.721037 	 5.125465 	 5.915314 	 0.813500 	 0.789188 	 0.580813 	 0.072125 	  
 13.952543 	 3.352255 	 4.940678 	 0.815000 	 0.789312 	 0.580875 	 0.055938 	  
 9.975396 	 1.591621 	 14.859965 	 0.814813 	 0.790563 	 0.581125 	 0.051313 	  
 5.385171 	 3.666654 	 8.909965 	 0.813438 	 0.790063 	 0.581937 	 0.052062 	  
 5.188671 	 8.206575 	 6.017494 	 0.812188 	 0.789687 	 0.582562 	 0.060562 	  
 6.949305 	 11.388293 	 6.575552 	 0.812188 	 0.787813 	 0.582250 	 0.082875 	  
 8.206901 	 12.344066 	 4.225420 	 0.812937 	 0.787438 	 0.580625 	 0.085500 	  
 7.908222 	 12.658465 	 6.905671 	 0.814438 	 0.787750 	 0.580688 	 0.064000 	  
 6.949305 	 13.010592 	 6.717032 	 0.813750 	 0.787500 	 0.580688 	 0.060875 	  
 4.929292 	 13.312415 	 6.166834 	 0.813562 	 0.788250 	 0.581438 	 0.063688 	  
 1.997522 	 14.192732 	 7.235790 	 0.811625 	 0.788125 	 0.582313 	 0.068187 	  
 -0.714170 	 15.261688 	 5.310096 	 0.811813 	 0.787062 	 0.582125 	 0.083625 	  
 1.038605 	 13.463326 	 9.609502 	 0.811750 	 0.786687 	 0.582250 	 0.083500 	  
 5.487350 	 10.520552 	 3.934601 	 0.812000 	 0.788750 	 0.582250 	 0.063875 	  
 8.497720 	 7.967632 	 4.233280 	 0.813937 	 0.788750 	 0.580750 	 0.056500 	  
 6.249768 	 5.653655 	 3.981761 	 0.814250 	 0.787375 	 0.580937 	 0.060375 	  
 2.539860 	 4.131964 	 1.977467 	 0.814438 	 0.788188 	 0.580813 	 0.054375 	  
 0.802805 	 5.490168 	 3.070004 	 0.812937 	 0.787188 	 0.580937 	 0.083125 	  
 2.209741 	 8.030512 	 3.282223 	 0.814375 	 0.789000 	 0.581000 	 0.055438 	  
 4.968592 	 9.338412 	 2.221126 	 0.812500 	 0.787813 	 0.582688 	 0.075188 	  
 7.593823 	 7.125043 	 4.146820 	 0.812312 	 0.789375 	 0.582813 	 0.060750 	  
 9.252278 	 3.754686 	 2.598405 	 0.812688 	 0.788188 	 0.581750 	 0.074313 	  
 9.472357 	 4.572123 	 3.014984 	 0.815125 	 0.789438 	 0.581313 	 0.045687 	  
 7.986822 	 8.294607 	 -0.286205 	 0.815125 	 0.790312 	 0.581438 	 0.042438 	  
 4.064695 	 7.024435 	 3.604482 	 0.814813 	 0.790375 	 0.581875 	 0.039625 	  
 5.047192 	 0.761607 	 4.555539 	 0.815125 	 0.789938 	 0.581500 	 0.060000 	  
 14.337682 	 -2.281775 	 8.627006 	 0.813063 	 0.791125 	 0.583250 	 0.047000 	  
 21.765358 	 -0.684628 	 4.618419 	 0.815438 	 0.790500 	 0.581438 	 0.044187 	  
 20.892900 	 2.685729 	 2.999264 	 0.814000 	 0.789875 	 0.581562 	 0.064500 	  
 17.654591 	 4.358332 	 2.755605 	 0.814562 	 0.790000 	 0.581500 	 0.063125 	  
 15.626717 	 5.930327 	 5.042857 	 0.814813 	 0.790500 	 0.581625 	 0.045187 	  
 16.396995 	 8.131119 	 2.449066 	 0.813000 	 0.791000 	 0.583187 	 0.045187 	  
 20.012583 	 9.011437 	 7.919608 	 0.813063 	 0.789063 	 0.583000 	 0.071438 	  
 22.433455 	 7.942480 	 6.182554 	 0.813375 	 0.788875 	 0.581438 	 0.069750 	  
 20.696401 	 7.225650 	 6.929251 	 0.815312 	 0.789250 	 0.581375 	 0.059813 	  
 19.069386 	 8.684462 	 5.490876 	 0.814937 	 0.789750 	 0.581562 	 0.045250 	  
 17.355912 	 11.602084 	 9.876742 	 0.813438 	 0.790188 	 0.582562 	 0.056250 	  
 15.029359 	 13.136351 	 6.009634 	 0.812500 	 0.788625 	 0.583125 	 0.073000 	  
 14.754260 	 14.117276 	 8.013928 	 0.812813 	 0.788062 	 0.581250 	 0.075063 	  
 16.750694 	 13.928637 	 3.918881 	 0.814312 	 0.787750 	 0.581187 	 0.056000 	  
 15.705317 	 11.551780 	 3.635922 	 0.814250 	 0.788938 	 0.581625 	 0.058375 	  
 11.696730 	 9.300684 	 4.524099 	 0.811937 	 0.788687 	 0.582688 	 0.063500 	  
 8.199041 	 9.338412 	 10.238300 	 0.811875 	 0.786500 	 0.582438 	 0.096125 	  
 5.825329 	 10.721767 	 5.710955 	 0.812438 	 0.787312 	 0.581187 	 0.083500 	  
 5.565950 	 11.174502 	 5.027137 	 0.813813 	 0.786813 	 0.581250 	 0.080750 	  
 7.397324 	 9.652810 	 7.290810 	 0.814125 	 0.787125 	 0.581187 	 0.065562 	  
 10.619914 	 7.665809 	 6.379053 	 0.814063 	 0.787062 	 0.581187 	 0.080125 	  
 10.714233 	 6.295029 	 3.698802 	 0.812250 	 0.787438 	 0.582750 	 0.079938 	  
 6.399107 	 4.987130 	 4.304020 	 0.811937 	 0.788813 	 0.582750 	 0.063438 	  
 0.441247 	 5.351832 	 1.961747 	 0.812063 	 0.788500 	 0.582750 	 0.065062 	  
 -4.714897 	 6.697460 	 4.453359 	 0.814500 	 0.788250 	 0.581313 	 0.054062 	  
 -6.491251 	 8.118543 	 5.498736 	 0.812188 	 0.788875 	 0.583125 	 0.060187 	  
 -4.376918 	 8.005360 	 8.446226 	 0.814688 	 0.789625 	 0.581625 	 0.050625 	  
 1.062185 	 6.760340 	 0.397612 	 0.814937 	 0.789687 	 0.581500 	 0.056000 	  
 5.550230 	 4.710458 	 2.048207 	 0.814875 	 0.788875 	 0.581562 	 0.053500 	  
 8.521300 	 2.673153 	 -1.983960 	 0.814000 	 0.788875 	 0.581813 	 0.065750 	  
 9.865356 	 4.106812 	 1.435129 	 0.814125 	 0.790687 	 0.582375 	 0.046312 	  
 7.444484 	 6.647156 	 2.299726 	 0.815063 	 0.789687 	 0.581813 	 0.039938 	  
 4.481273 	 6.244726 	 -0.239046 	 0.813937 	 0.790312 	 0.582313 	 0.064187 	  
 5.707430 	 3.100736 	 0.884931 	 0.815312 	 0.791875 	 0.582000 	 0.041938 	  
 8.922159 	 0.321449 	 0.491932 	 0.814000 	 0.790375 	 0.582000 	 0.064187 	  
 9.936096 	 0.245993 	 1.317229 	 0.813125 	 0.790188 	 0.583438 	 0.060500 	  
 10.211195 	 0.925095 	 7.251510 	 0.813500 	 0.790250 	 0.582875 	 0.069687 	  
 10.690653 	 0.849639 	 2.747745 	 0.814188 	 0.789875 	 0.581813 	 0.061687 	  
 12.679227 	 0.396904 	 3.014984 	 0.815188 	 0.790625 	 0.581875 	 0.042500 	  
 15.052939 	 2.635425 	 4.767758 	 0.813625 	 0.791125 	 0.583063 	 0.046000 	  
 18.102609 	 5.037433 	 6.489093 	 0.812875 	 0.790188 	 0.583562 	 0.062000 	  
 21.946137 	 5.854871 	 8.509106 	 0.813188 	 0.789438 	 0.582063 	 0.067812 	  
 23.966150 	 5.515320 	 5.797415 	 0.815250 	 0.789375 	 0.581750 	 0.057688 	  
 20.641381 	 6.496245 	 5.066437 	 0.815000 	 0.789312 	 0.581625 	 0.054000 	  
 13.653864 	 8.646734 	 6.151114 	 0.814250 	 0.790188 	 0.582562 	 0.055875 	  
 6.910006 	 10.407368 	 6.473373 	 0.812250 	 0.790000 	 0.583500 	 0.061000 	  
 4.080415 	 13.802877 	 13.303691 	 0.812250 	 0.787625 	 0.583000 	 0.084125 	  
 5.872489 	 15.412600 	 7.503029 	 0.812562 	 0.787500 	 0.581688 	 0.082250 	  
 6.807826 	 13.878333 	 6.426213 	 0.814562 	 0.787625 	 0.581500 	 0.070750 	  
 6.013969 	 11.891331 	 7.793848 	 0.814063 	 0.787375 	 0.581500 	 0.067937 	  
 4.284774 	 10.319336 	 6.827072 	 0.814250 	 0.788375 	 0.581937 	 0.061812 	  
 2.437680 	 7.414290 	 7.385130 	 0.811937 	 0.788312 	 0.583125 	 0.059250 	  
 3.105778 	 5.376984 	 4.233280 	 0.811813 	 0.787875 	 0.582937 	 0.064750 	  
 7.043625 	 5.087737 	 3.840281 	 0.813813 	 0.788188 	 0.582250 	 0.057250 	  
 8.977179 	 6.005782 	 1.906727 	 0.814750 	 0.787375 	 0.581688 	 0.080562 	  
 6.241908 	 6.420789 	 2.928524 	 0.812000 	 0.788500 	 0.583063 	 0.063750 	  
 2.036821 	 5.968054 	 6.143254 	 0.814250 	 0.788625 	 0.581875 	 0.056500 	  
 0.747786 	 6.886099 	 -0.514145 	 0.814312 	 0.789000 	 0.582438 	 0.052500 	  
 0.456967 	 6.282453 	 -1.135083 	 0.814625 	 0.788750 	 0.581813 	 0.057688 	  
 -0.360471 	 2.962400 	 0.240413 	 0.813063 	 0.788312 	 0.581875 	 0.083187 	  
 1.502343 	 -1.426610 	 2.732025 	 0.812625 	 0.788750 	 0.583562 	 0.071188 	  
 6.391247 	 -3.463915 	 2.952104 	 0.815000 	 0.789875 	 0.582063 	 0.056813 	  
 10.965752 	 -0.571444 	 3.958181 	 0.815063 	 0.788750 	 0.582125 	 0.057750 	  
 12.993626 	 4.006205 	 0.146093 	 0.815250 	 0.790312 	 0.582375 	 0.044062 	  
 9.071499 	 4.458939 	 0.932091 	 0.814625 	 0.790938 	 0.583187 	 0.044125 	  
 5.715289 	 1.138886 	 3.313663 	 0.813188 	 0.790938 	 0.584063 	 0.042875 	  
 8.513440 	 -0.244469 	 10.246160 	 0.813750 	 0.791813 	 0.584000 	 0.039938 	  
 15.123679 	 0.560392 	 7.180770 	 0.815312 	 0.790875 	 0.582562 	 0.039000 	  
 17.913970 	 0.698727 	 0.790611 	 0.814438 	 0.790125 	 0.582250 	 0.062875 	  
 16.396995 	 -0.080982 	 2.606265 	 0.813813 	 0.790375 	 0.582688 	 0.066187 	  
 13.237285 	 1.289798 	 4.555539 	 0.814250 	 0.790000 	 0.582187 	 0.066250 	  
 11.602410 	 4.182268 	 7.589489 	 0.815250 	 0.789938 	 0.582313 	 0.045125 	  
 13.103666 	 6.571700 	 7.243650 	 0.815063 	 0.791063 	 0.583125 	 0.047313 	  
 16.066876 	 8.558702 	 9.648802 	 0.813063 	 0.790687 	 0.584000 	 0.050375 	  
 17.025793 	 11.124198 	 12.525553 	 0.812750 	 0.789188 	 0.584000 	 0.071875 	  
 15.705317 	 13.086047 	 10.536979 	 0.813750 	 0.789500 	 0.582187 	 0.068937 	  
 14.927180 	 13.501054 	 13.012871 	 0.815125 	 0.789438 	 0.582313 	 0.062813 	  
 10.981472 	 15.010169 	 8.776345 	 0.815063 	 0.790500 	 0.582375 	 0.054688 	  
 5.455910 	 17.613393 	 8.092527 	 0.813063 	 0.790250 	 0.583625 	 0.055563 	  
 2.083981 	 18.594318 	 7.220070 	 0.812188 	 0.789375 	 0.583688 	 0.071125 	  
 3.145078 	 17.525361 	 8.045368 	 0.812312 	 0.788000 	 0.583750 	 0.082312 	  
 6.784246 	 16.682772 	 4.877798 	 0.812688 	 0.787625 	 0.582250 	 0.086313 	  
 8.450561 	 14.582587 	 1.411549 	 0.813937 	 0.787000 	 0.581750 	 0.081187 	  
 5.235831 	 11.614660 	 -1.056483 	 0.814375 	 0.787563 	 0.582000 	 0.062062 	  
 -1.476587 	 8.206575 	 0.303293 	 0.814188 	 0.788813 	 0.582313 	 0.058063 	  
 -5.390855 	 6.345333 	 3.203623 	 0.814125 	 0.788375 	 0.582438 	 0.064875 	  
 -6.412651 	 5.754263 	 8.870665 	 0.814125 	 0.788625 	 0.582438 	 0.060312 	  
 -2.160405 	 9.288108 	 4.461219 	 0.814125 	 0.787312 	 0.582187 	 0.077875 	  
 7.020045 	 14.922137 	 3.235063 	 0.812312 	 0.789188 	 0.583875 	 0.066812 	  
 12.419848 	 17.009747 	 2.598405 	 0.814500 	 0.789312 	 0.582000 	 0.058375 	  
 12.844286 	 12.796800 	 1.332949 	 0.814125 	 0.787875 	 0.582125 	 0.082312 	  
 11.806770 	 8.030512 	 3.109304 	 0.812562 	 0.787938 	 0.583875 	 0.077063 	  
 10.494154 	 5.188345 	 5.200057 	 0.812438 	 0.789875 	 0.584063 	 0.060125 	  
 8.568460 	 1.742532 	 2.661285 	 0.812875 	 0.789125 	 0.584063 	 0.068750 	  
 10.014696 	 -1.313426 	 5.734535 	 0.812688 	 0.790438 	 0.584125 	 0.058000 	  
 14.471301 	 0.095081 	 3.840281 	 0.813188 	 0.790438 	 0.583813 	 0.053187 	  
 16.727114 	 3.804989 	 7.117891 	 0.815375 	 0.790063 	 0.582625 	 0.046812 	  
 11.861790 	 6.106390 	 6.033214 	 0.814250 	 0.789687 	 0.582688 	 0.068062 	  
 5.723149 	 4.635003 	 4.948538 	 0.813000 	 0.789875 	 0.584250 	 0.057688 	  
 5.180811 	 2.949824 	 5.310096 	 0.815750 	 0.791625 	 0.583313 	 0.036875 	  
 10.792833 	 5.515320 	 8.068947 	 0.815500 	 0.790188 	 0.582813 	 0.046687 	  
 17.772490 	 8.835373 	 2.614125 	 0.813625 	 0.789813 	 0.584500 	 0.062875 	  
 19.556705 	 8.282031 	 1.081430 	 0.813562 	 0.791375 	 0.584500 	 0.039688 	  
 16.334115 	 4.056509 	 0.358312 	 0.813375 	 0.791687 	 0.584625 	 0.039188 	  
 12.301948 	 0.648424 	 4.484799 	 0.812937 	 0.789563 	 0.584313 	 0.069750 	  
 10.360534 	 2.673153 	 3.628062 	 0.814375 	 0.790438 	 0.582937 	 0.060937 	  
 10.211195 	 8.256879 	 9.475883 	 0.815500 	 0.790563 	 0.582750 	 0.045000 	  
 10.305515 	 10.621159 	 3.242923 	 0.815125 	 0.791063 	 0.583375 	 0.043188 	  
 12.529887 	 10.369640 	 6.638432 	 0.813000 	 0.790625 	 0.584375 	 0.053125 	  
 14.109742 	 10.897830 	 7.314390 	 0.813000 	 0.789188 	 0.584438 	 0.068875 	  
 12.514167 	 10.520552 	 10.159701 	 0.813125 	 0.788500 	 0.583000 	 0.071125 	  
 11.146532 	 7.489745 	 8.226147 	 0.814063 	 0.788563 	 0.582375 	 0.072438 	  
 12.301948 	 7.628081 	 8.917825 	 0.814937 	 0.788500 	 0.582500 	 0.059063 	  
 12.113309 	 11.400869 	 3.290083 	 0.813375 	 0.789250 	 0.583625 	 0.061250 	  
 10.706373 	 13.387870 	 7.699529 	 0.812312 	 0.787438 	 0.584063 	 0.075688 	  
 10.234775 	 10.533128 	 7.039291 	 0.812562 	 0.787500 	 0.582500 	 0.086938 	  
 7.562384 	 6.496245 	 13.610230 	 0.814188 	 0.786875 	 0.582438 	 0.071688 	  
 4.473414 	 5.590776 	 6.960691 	 0.814438 	 0.787500 	 0.582250 	 0.061750 	  
 2.249041 	 6.257301 	 6.143254 	 0.814250 	 0.788000 	 0.582438 	 0.061687 	  
 0.622026 	 4.609851 	 3.455142 	 0.814188 	 0.787125 	 0.582375 	 0.062187 	  
 4.481273 	 2.761185 	 6.559832 	 0.813063 	 0.787000 	 0.582250 	 0.083437 	  
 14.738540 	 4.987130 	 -1.009323 	 0.812312 	 0.789312 	 0.584187 	 0.062875 	  
 19.973283 	 7.213074 	 -0.765664 	 0.814312 	 0.788938 	 0.582688 	 0.054000 	  
 16.774274 	 5.452440 	 1.254350 	 0.813937 	 0.787312 	 0.582375 	 0.081875 	  
 11.020772 	 3.088160 	 -0.286205 	 0.814875 	 0.789563 	 0.582625 	 0.053625 	  
 6.760666 	 4.723034 	 1.961747 	 0.812250 	 0.789500 	 0.584313 	 0.062813 	  
 3.058618 	 7.867024 	 4.366899 	 0.812500 	 0.790000 	 0.584313 	 0.055688 	  
 2.500560 	 8.495822 	 3.447282 	 0.813312 	 0.790250 	 0.583750 	 0.048813 	  
 7.813903 	 8.231727 	 1.670928 	 0.815063 	 0.788875 	 0.582625 	 0.075313 	  
 13.245145 	 8.646734 	 3.580902 	 0.813312 	 0.789438 	 0.583813 	 0.069562 	  
 15.846797 	 9.703114 	 5.270797 	 0.813250 	 0.791000 	 0.584625 	 0.051500 	  
 13.111526 	 10.030089 	 4.547679 	 0.814188 	 0.789563 	 0.582813 	 0.068312 	  
