[MyosystemBr1 Versão 3.5.61]
[Informações gerais]
	[Descrição geral] = 
	[Número de amostras por canal] = 50001.000000
	[Duração] = 25.000000 seg
	[Taxa de amostragem por canal] = 2000 Hz
	[Número de canais]  = 6
	[Canais utilizados] = 2	3	4	9	10	11	
[Informações sobre canais]
	[canal 1]
		Tipo de eletrodo = Passivo
		Descrição = 
		Unidade = uV
		Freqüência = 2000
		Filtro passa alta = 20.000000 Hz
		Filtro passa baixa = 500.000000 Hz
		Ganho do eletrodo = 20.000000
		Ganho do eletromiógrafo = 397.584015
		Tempo = 25.000000
	[canal 2]
		Tipo de eletrodo = Ativo
		Descrição = 
		Unidade = uV
		Freqüência = 2000
		Filtro passa alta = 20.000000 Hz
		Filtro passa baixa = 500.000000 Hz
		Ganho do eletrodo = 20.000000
		Ganho do eletromiógrafo = 397.583984
		Tempo = 25.000000
	[canal 3]
		Tipo de eletrodo = Ativo
		Descrição = 
		Unidade = uV
		Freqüência = 2000
		Filtro passa alta = 20.000000 Hz
		Filtro passa baixa = 500.000000 Hz
		Ganho do eletrodo = 20.000000
		Ganho do eletromiógrafo = 248.489990
		Tempo = 25.000000
	[canal 4]
		Tipo de eletrodo = Ativo
		Descrição = 
		Unidade = uV
		Freqüência = 2000
		Filtro passa alta = 20.000000 Hz
		Filtro passa baixa = 500.000000 Hz
		Ganho do eletrodo = 20.000000
		Ganho do eletromiógrafo = 397.583984
		Tempo = 25.000000
	[canal 5]
		Tipo de eletrodo = Passivo
		Descrição = 
		Unidade = uV
		Freqüência = 2000
		Filtro passa alta = 20.000000 Hz
		Filtro passa baixa = 1000.000000 Hz
		Ganho do eletrodo = 20.000000
		Ganho do eletromiógrafo = 397.584015
		Tempo = 25.000000
	[canal 6]
		Tipo de eletrodo = Passivo
		Descrição = 
		Unidade = uV
		Freqüência = 2000
		Filtro passa alta = 20.000000 Hz
		Filtro passa baixa = 1000.000000 Hz
		Ganho do eletrodo = 20.000000
		Ganho do eletromiógrafo = 397.584015
		Tempo = 25.000000
	[canal 7]
		Tipo de eletrodo = Passivo
		Descrição = 
		Unidade = uV
		Freqüência = 2000
		Filtro passa alta = 20.000000 Hz
		Filtro passa baixa = 1000.000000 Hz
		Ganho do eletrodo = 20.000000
		Ganho do eletromiógrafo = 397.584015
		Tempo = 25.000000
	[canal 8]
		Tipo de eletrodo = Passivo
		Descrição = 
		Unidade = uV
		Freqüência = 2000
		Filtro passa alta = 20.000000 Hz
		Filtro passa baixa = 1000.000000 Hz
		Ganho do eletrodo = 20.000000
		Ganho do eletromiógrafo = 397.584015
		Tempo = 25.000000
	[canal 9]
		Fonte de sinal auxiliar = Entrada em volts
		Descrição = 
		Unidade = V
		Freqüência = 2000
		Filtro passa alta = 0.000000 Hz
		Filtro passa baixa = 100000.000000 Hz
		Ganho do eletrodo = 1.000000
		Ganho do eletromiógrafo = 1.000000
		Tempo = 25.000000
	[canal 10]
		Fonte de sinal auxiliar = Entrada em volts
		Descrição = 
		Unidade = V
		Freqüência = 2000
		Filtro passa alta = 0.000000 Hz
		Filtro passa baixa = 100000.000000 Hz
		Ganho do eletrodo = 1.000000
		Ganho do eletromiógrafo = 1.000000
		Tempo = 25.000000
	[canal 11]
		Fonte de sinal auxiliar = Entrada em volts
		Descrição = 
		Unidade = V
		Freqüência = 2000
		Filtro passa alta = 0.000000 Hz
		Filtro passa baixa = 100000.000000 Hz
		Ganho do eletrodo = 1.000000
		Ganho do eletromiógrafo = 1.000000
		Tempo = 25.000000
	[canal 12]
		Fonte de sinal auxiliar = Entrada em volts
		Descrição = 
		Unidade = V
		Freqüência = 2000
		Filtro passa alta = 0.000000 Hz
		Filtro passa baixa = 100000.000000 Hz
		Ganho do eletrodo = 1.000000
		Ganho do eletromiógrafo = 1.000000
		Tempo = 25.000000
[Dados]
11.052212 	 4.484091 	 11.794575 	 0.880437 	 0.738812 	 0.743688 	  
 11.720310 	 4.685307 	 10.505540 	 0.877375 	 0.738688 	 0.745500 	  
 18.754987 	 4.282876 	 8.391206 	 0.879812 	 0.738313 	 0.743563 	  
 27.393099 	 4.484091 	 7.172910 	 0.876875 	 0.740000 	 0.745625 	  
 27.345939 	 4.660155 	 5.019277 	 0.878938 	 0.737938 	 0.743500 	  
 21.215159 	 6.018358 	 6.025354 	 0.876875 	 0.739875 	 0.745625 	  
 13.237285 	 6.986707 	 8.422646 	 0.878437 	 0.738063 	 0.743437 	  
 6.634907 	 6.823220 	 5.868155 	 0.877125 	 0.740000 	 0.745500 	  
 4.331934 	 7.401714 	 5.931034 	 0.877688 	 0.737938 	 0.743563 	  
 8.018262 	 8.583854 	 5.011417 	 0.876875 	 0.740063 	 0.745688 	  
 11.366611 	 7.678385 	 5.357256 	 0.877812 	 0.738000 	 0.743375 	  
 11.437351 	 6.559125 	 4.304020 	 0.877812 	 0.739875 	 0.745500 	  
 6.807826 	 6.596852 	 4.524099 	 0.877125 	 0.738187 	 0.743563 	  
 1.934642 	 7.665809 	 2.103227 	 0.879375 	 0.740250 	 0.744313 	  
 0.747786 	 8.973709 	 -2.809257 	 0.876625 	 0.738313 	 0.745062 	  
 4.308354 	 8.294607 	 -1.418042 	 0.879250 	 0.740375 	 0.744062 	  
 5.982529 	 4.609851 	 1.474429 	 0.876625 	 0.738313 	 0.745313 	  
 4.394814 	 1.390405 	 0.892791 	 0.879437 	 0.740000 	 0.743875 	  
 1.887482 	 1.855716 	 -1.551661 	 0.876437 	 0.738313 	 0.745625 	  
 -0.022492 	 3.943325 	 -2.683498 	 0.879375 	 0.739437 	 0.743688 	  
 -1.665227 	 6.533973 	 -4.860711 	 0.876500 	 0.738375 	 0.745563 	  
 0.174007 	 7.841872 	 -1.119363 	 0.879188 	 0.739000 	 0.743688 	  
 7.365884 	 8.822797 	 -3.524515 	 0.876375 	 0.740500 	 0.745563 	  
 12.325528 	 8.432942 	 0.735591 	 0.878875 	 0.738437 	 0.743563 	  
 14.982199 	 6.999283 	 2.228986 	 0.876250 	 0.740250 	 0.745625 	  
 12.404128 	 6.269877 	 3.305803 	 0.878062 	 0.738313 	 0.743563 	  
 6.399107 	 7.288530 	 4.123240 	 0.876938 	 0.740187 	 0.745688 	  
 0.810665 	 8.495822 	 4.272580 	 0.877750 	 0.738250 	 0.743625 	  
 3.396597 	 8.986285 	 1.718088 	 0.878000 	 0.740250 	 0.745500 	  
 8.049702 	 9.401291 	 3.117164 	 0.877125 	 0.738313 	 0.743437 	  
 7.978962 	 11.099046 	 5.608775 	 0.879250 	 0.740125 	 0.744812 	  
 6.194748 	 13.626814 	 6.858511 	 0.877000 	 0.738313 	 0.743563 	  
 5.597390 	 15.161081 	 5.687375 	 0.879500 	 0.740187 	 0.744437 	  
 2.862119 	 15.274264 	 -0.034686 	 0.876750 	 0.738000 	 0.744250 	  
 -1.578767 	 13.136351 	 -0.930723 	 0.879625 	 0.740250 	 0.744375 	  
 -3.378701 	 10.533128 	 3.030704 	 0.877000 	 0.738063 	 0.743875 	  
 -0.745610 	 8.483246 	 7.479449 	 0.879500 	 0.739812 	 0.744250 	  
 1.628103 	 9.162348 	 9.971061 	 0.876750 	 0.737938 	 0.745188 	  
 2.280481 	 11.011014 	 8.674166 	 0.879812 	 0.739938 	 0.744125 	  
 0.881405 	 12.130274 	 5.773835 	 0.876938 	 0.737938 	 0.743750 	  
 -1.272228 	 11.086470 	 8.163267 	 0.879437 	 0.740063 	 0.744313 	  
 -2.262585 	 9.539627 	 6.001774 	 0.876625 	 0.738000 	 0.745062 	  
 1.400163 	 7.187922 	 6.575552 	 0.879437 	 0.739938 	 0.744000 	  
 7.578103 	 5.754263 	 8.218287 	 0.876375 	 0.737875 	 0.744875 	  
 12.569187 	 7.150195 	 7.943188 	 0.879062 	 0.739875 	 0.744000 	  
 12.034709 	 9.376139 	 7.141470 	 0.876125 	 0.738125 	 0.744875 	  
 6.823546 	 9.388715 	 6.143254 	 0.879125 	 0.740375 	 0.744000 	  
 2.060401 	 8.118543 	 7.542329 	 0.876375 	 0.738563 	 0.745500 	  
 3.710996 	 6.886099 	 5.860295 	 0.879188 	 0.739688 	 0.743750 	  
 11.280151 	 6.546549 	 5.176477 	 0.876375 	 0.739000 	 0.745688 	  
 17.041513 	 7.363986 	 7.841008 	 0.879188 	 0.738750 	 0.743625 	  
 19.965423 	 9.049164 	 6.646292 	 0.876125 	 0.739875 	 0.745750 	  
 17.937550 	 8.118543 	 4.076080 	 0.879188 	 0.738875 	 0.743688 	  
 12.191909 	 6.118966 	 2.818484 	 0.876375 	 0.740000 	 0.745563 	  
 6.815686 	 3.691806 	 -1.080063 	 0.878000 	 0.738437 	 0.743500 	  
 7.546664 	 2.321026 	 -0.506285 	 0.875250 	 0.740375 	 0.745750 	  
 14.408421 	 1.176614 	 -3.115796 	 0.878188 	 0.738375 	 0.743563 	  
 18.692107 	 1.214342 	 -4.507012 	 0.875750 	 0.740563 	 0.745688 	  
 16.821434 	 0.233417 	 -0.380525 	 0.877062 	 0.738187 	 0.743625 	  
 11.633850 	 -0.634324 	 -4.994330 	 0.876688 	 0.740125 	 0.745625 	  
 5.361591 	 -0.885843 	 -1.205822 	 0.877313 	 0.737938 	 0.743563 	  
 2.398380 	 -0.257045 	 2.362606 	 0.879500 	 0.740313 	 0.744688 	  
 6.006109 	 0.925095 	 4.862078 	 0.877125 	 0.738125 	 0.743750 	  
 13.944683 	 0.811911 	 -3.343736 	 0.879500 	 0.740125 	 0.744313 	  
 17.033653 	 0.107657 	 -1.040763 	 0.876750 	 0.738437 	 0.744563 	  
 13.276585 	 0.296297 	 0.153953 	 0.879938 	 0.740375 	 0.744125 	  
 6.461987 	 1.025702 	 5.820995 	 0.876938 	 0.738063 	 0.744688 	  
 1.250824 	 0.547816 	 5.262937 	 0.879437 	 0.740187 	 0.744313 	  
 2.382660 	 0.673576 	 6.473373 	 0.877188 	 0.738313 	 0.743938 	  
 10.981472 	 0.459784 	 6.355473 	 0.879625 	 0.740063 	 0.744000 	  
 17.395212 	 2.509666 	 6.269013 	 0.876563 	 0.738187 	 0.745437 	  
 17.623151 	 5.402136 	 6.937111 	 0.879062 	 0.740187 	 0.744000 	  
 13.551684 	 7.263378 	 5.074297 	 0.876000 	 0.738063 	 0.744688 	  
 8.230481 	 7.011859 	 6.724892 	 0.878688 	 0.739938 	 0.744437 	  
 3.577376 	 6.798068 	 5.082157 	 0.876375 	 0.738125 	 0.743688 	  
 7.012185 	 7.753841 	 7.935328 	 0.879000 	 0.740437 	 0.744188 	  
 16.279095 	 10.231305 	 7.172910 	 0.876000 	 0.737938 	 0.745563 	  
 21.914697 	 11.488901 	 6.426213 	 0.879125 	 0.739875 	 0.743938 	  
 20.161923 	 12.142850 	 6.882091 	 0.876313 	 0.737938 	 0.745500 	  
 15.673877 	 12.042243 	 7.762408 	 0.879250 	 0.739500 	 0.743938 	  
 11.681010 	 12.583009 	 5.640215 	 0.876563 	 0.738812 	 0.745625 	  
 8.914299 	 11.501477 	 7.896028 	 0.879500 	 0.738375 	 0.743563 	  
 10.109015 	 10.168425 	 4.909238 	 0.875812 	 0.740063 	 0.745812 	  
 14.526321 	 9.376139 	 7.314390 	 0.878188 	 0.738375 	 0.743688 	  
 17.976850 	 8.998861 	 5.278657 	 0.876125 	 0.740313 	 0.745750 	  
 17.851090 	 8.684462 	 0.051773 	 0.877688 	 0.738187 	 0.743625 	  
 13.913243 	 8.244303 	 1.985327 	 0.877000 	 0.740437 	 0.745750 	  
 7.806043 	 8.596430 	 2.409766 	 0.877750 	 0.738313 	 0.743437 	  
 5.282991 	 9.174924 	 0.696291 	 0.879125 	 0.740500 	 0.745188 	  
 8.819979 	 8.118543 	 0.735591 	 0.876938 	 0.738375 	 0.743625 	  
 15.186559 	 7.011859 	 1.018550 	 0.879563 	 0.740313 	 0.744313 	  
 16.994353 	 7.175347 	 3.651642 	 0.876375 	 0.738187 	 0.745125 	  
 14.974340 	 7.250802 	 5.129317 	 0.879000 	 0.740688 	 0.744437 	  
 10.486294 	 7.879600 	 4.193980 	 0.876375 	 0.738313 	 0.744125 	  
 5.204391 	 8.105968 	 6.103954 	 0.879188 	 0.740313 	 0.744437 	  
 3.781736 	 8.873101 	 4.846358 	 0.876437 	 0.738563 	 0.744500 	  
 7.326584 	 8.546126 	 2.370466 	 0.879375 	 0.740688 	 0.744437 	  
 9.495937 	 6.999283 	 2.763465 	 0.876812 	 0.738500 	 0.743563 	  
 9.126518 	 6.571700 	 4.193980 	 0.879188 	 0.740812 	 0.744313 	  
 8.505580 	 7.489745 	 6.269013 	 0.876500 	 0.738563 	 0.745375 	  
 6.399107 	 8.168847 	 5.341536 	 0.879250 	 0.740625 	 0.744062 	  
 2.516280 	 8.671886 	 7.817428 	 0.876563 	 0.738625 	 0.744688 	  
 3.247257 	 9.514475 	 10.914258 	 0.879313 	 0.740563 	 0.744313 	  
 7.216545 	 9.904330 	 9.774562 	 0.876500 	 0.738313 	 0.743750 	  
 9.134378 	 9.187500 	 10.764919 	 0.879437 	 0.740375 	 0.744188 	  
 7.821763 	 8.181423 	 7.668089 	 0.877375 	 0.738375 	 0.745125 	  
 6.265488 	 7.829296 	 7.628789 	 0.879938 	 0.740125 	 0.744250 	  
 2.382660 	 8.935981 	 8.226147 	 0.877313 	 0.738313 	 0.743938 	  
 -1.146468 	 9.350987 	 5.121457 	 0.880188 	 0.740000 	 0.744250 	  
 1.203664 	 9.589931 	 6.001774 	 0.877188 	 0.737938 	 0.745313 	  
 8.788540 	 9.703114 	 6.221853 	 0.879563 	 0.740000 	 0.744000 	  
 12.144749 	 9.401291 	 5.789555 	 0.877062 	 0.738250 	 0.745375 	  
 11.099372 	 8.043088 	 4.469079 	 0.879812 	 0.740187 	 0.743812 	  
 7.161525 	 7.942480 	 2.724165 	 0.876625 	 0.738688 	 0.745688 	  
 2.241181 	 7.099891 	 1.112870 	 0.879812 	 0.739313 	 0.743625 	  
 1.816742 	 6.445941 	 -3.084356 	 0.876938 	 0.740500 	 0.745688 	  
 7.318724 	 5.980630 	 -4.184753 	 0.879437 	 0.738938 	 0.743688 	  
 14.565621 	 6.684884 	 -2.243339 	 0.877250 	 0.740812 	 0.745688 	  
 16.200496 	 5.754263 	 -3.217976 	 0.878500 	 0.739063 	 0.743563 	  
 13.032926 	 3.503166 	 -5.017910 	 0.877375 	 0.740750 	 0.745812 	  
 7.012185 	 2.648001 	 -4.467712 	 0.877688 	 0.738688 	 0.743625 	  
 0.315487 	 2.497090 	 -2.455558 	 0.879938 	 0.740688 	 0.744625 	  
 -2.018925 	 3.402559 	 -3.697434 	 0.877000 	 0.738563 	 0.744375 	  
 6.202608 	 3.628926 	 -2.125440 	 0.879750 	 0.740875 	 0.744250 	  
 15.548118 	 3.314527 	 1.387969 	 0.877375 	 0.738750 	 0.745000 	  
 18.582068 	 4.685307 	 3.329383 	 0.880000 	 0.740250 	 0.744375 	  
 14.919320 	 8.193999 	 6.559832 	 0.876875 	 0.738563 	 0.744563 	  
 9.511657 	 10.596007 	 4.351180 	 0.880062 	 0.740375 	 0.744250 	  
 4.402674 	 10.243881 	 7.495169 	 0.877250 	 0.738437 	 0.744250 	  
 4.174734 	 7.565201 	 3.030704 	 0.879875 	 0.740563 	 0.744437 	  
 8.985039 	 7.967632 	 5.090017 	 0.877125 	 0.738563 	 0.744125 	  
 13.740324 	 9.325836 	 4.869938 	 0.879812 	 0.740625 	 0.744625 	  
 12.938606 	 10.055241 	 6.080374 	 0.877313 	 0.738688 	 0.743688 	  
 10.659213 	 9.426443 	 6.213993 	 0.880062 	 0.740375 	 0.744313 	  
 6.485567 	 9.137196 	 4.979977 	 0.877125 	 0.738625 	 0.745000 	  
 4.819252 	 9.828874 	 7.337970 	 0.879875 	 0.740750 	 0.744250 	  
 7.625263 	 10.922982 	 6.787772 	 0.877250 	 0.738375 	 0.743812 	  
 12.419848 	 10.256457 	 9.043584 	 0.879875 	 0.740563 	 0.744375 	  
 14.738540 	 9.300684 	 8.053228 	 0.877000 	 0.738437 	 0.745125 	  
 14.432001 	 8.935981 	 9.287244 	 0.879875 	 0.740500 	 0.744062 	  
 10.564894 	 9.439019 	 5.239357 	 0.877062 	 0.738187 	 0.744563 	  
 6.823546 	 9.489323 	 1.718088 	 0.879625 	 0.740437 	 0.744313 	  
 7.405184 	 8.420366 	 4.956398 	 0.877250 	 0.738187 	 0.744250 	  
 13.048646 	 6.206998 	 2.519805 	 0.879437 	 0.740313 	 0.744563 	  
 17.646731 	 5.641079 	 1.042130 	 0.876750 	 0.738313 	 0.744250 	  
 17.937550 	 6.735188 	 0.248273 	 0.879938 	 0.740437 	 0.744062 	  
 11.107232 	 6.798068 	 -4.216193 	 0.876812 	 0.738437 	 0.745625 	  
 2.681339 	 3.804989 	 0.036053 	 0.879625 	 0.739750 	 0.743812 	  
 -3.103602 	 2.459362 	 1.089290 	 0.876938 	 0.739812 	 0.745688 	  
 -0.627710 	 1.717380 	 1.891007 	 0.879750 	 0.738812 	 0.743750 	  
 7.609543 	 0.661000 	 0.853491 	 0.876750 	 0.740938 	 0.745750 	  
 12.435568 	 -0.169014 	 2.967824 	 0.878500 	 0.738875 	 0.743625 	  
 13.315885 	 1.830564 	 1.018550 	 0.877875 	 0.740750 	 0.745625 	  
 10.329095 	 4.622427 	 3.195763 	 0.877375 	 0.738812 	 0.743750 	  
 7.098645 	 6.118966 	 5.530176 	 0.879750 	 0.740812 	 0.744563 	  
 4.945012 	 6.194422 	 2.401906 	 0.876875 	 0.738563 	 0.744125 	  
 9.205118 	 5.917751 	 1.301509 	 0.879750 	 0.740437 	 0.744688 	  
 15.139399 	 6.056086 	 3.738102 	 0.877500 	 0.738437 	 0.743750 	  
 18.857167 	 5.251225 	 4.822778 	 0.879938 	 0.740500 	 0.744250 	  
 16.475595 	 6.081238 	 7.086451 	 0.876875 	 0.738563 	 0.745437 	  
 13.661724 	 6.999283 	 6.575552 	 0.879938 	 0.740875 	 0.744062 	  
 10.494154 	 6.684884 	 4.924958 	 0.877062 	 0.738750 	 0.744563 	  
 9.558817 	 6.068662 	 6.158974 	 0.879750 	 0.740500 	 0.744375 	  
 12.655647 	 5.691383 	 4.822778 	 0.877188 	 0.738688 	 0.744250 	  
 15.815357 	 5.226073 	 5.530176 	 0.880062 	 0.740313 	 0.744375 	  
 13.488804 	 6.848372 	 5.624495 	 0.877125 	 0.738250 	 0.744000 	  
 9.244418 	 8.898253 	 6.418353 	 0.879875 	 0.740375 	 0.744500 	  
 4.897852 	 9.677962 	 4.893518 	 0.877250 	 0.738750 	 0.743688 	  
 1.997522 	 9.426443 	 5.679515 	 0.879750 	 0.740812 	 0.744437 	  
 2.351220 	 10.294184 	 7.636649 	 0.876938 	 0.738563 	 0.745000 	  
 6.234048 	 10.369640 	 4.555539 	 0.879812 	 0.740313 	 0.744250 	  
 6.674206 	 10.017513 	 3.022844 	 0.877062 	 0.738313 	 0.744313 	  
 5.487350 	 9.388715 	 4.115380 	 0.879812 	 0.740437 	 0.744500 	  
 3.223678 	 9.740842 	 5.333676 	 0.877313 	 0.738187 	 0.743688 	  
 -0.439071 	 10.721767 	 5.034997 	 0.879688 	 0.740375 	 0.744313 	  
 -3.567340 	 12.293762 	 7.448009 	 0.877000 	 0.738250 	 0.745188 	  
 -0.384051 	 10.520552 	 2.488366 	 0.879750 	 0.740375 	 0.744062 	  
 6.108288 	 8.181423 	 1.608048 	 0.876938 	 0.738000 	 0.744500 	  
 10.399834 	 7.678385 	 0.601972 	 0.879875 	 0.740313 	 0.744188 	  
 9.904656 	 9.677962 	 1.026410 	 0.877125 	 0.738500 	 0.745625 	  
 6.587747 	 10.382216 	 0.452632 	 0.880000 	 0.739125 	 0.743812 	  
 2.492700 	 9.527051 	 0.594112 	 0.876938 	 0.740000 	 0.745750 	  
 0.779225 	 6.710036 	 0.122513 	 0.879938 	 0.738812 	 0.743688 	  
 4.614893 	 4.848794 	 -4.169033 	 0.876875 	 0.740938 	 0.745812 	  
 9.873216 	 4.484091 	 -1.528081 	 0.878000 	 0.738812 	 0.743688 	  
 12.907166 	 4.660155 	 0.845631 	 0.879188 	 0.740875 	 0.745250 	  
 13.300165 	 5.653655 	 -0.388385 	 0.877250 	 0.738563 	 0.743812 	  
 13.166545 	 5.930327 	 4.791338 	 0.879750 	 0.741000 	 0.744375 	  
 10.085435 	 6.194422 	 6.481233 	 0.876875 	 0.738688 	 0.744812 	  
 10.612054 	 6.508821 	 3.690942 	 0.879875 	 0.740500 	 0.744375 	  
 16.176916 	 6.898675 	 3.966041 	 0.876875 	 0.738563 	 0.744750 	  
 20.979360 	 6.068662 	 5.380836 	 0.879875 	 0.740750 	 0.744437 	  
 19.761064 	 5.527896 	 7.730969 	 0.877437 	 0.738625 	 0.743688 	  
 16.601354 	 6.106390 	 9.727402 	 0.879812 	 0.740875 	 0.744437 	  
 10.619914 	 6.873523 	 6.866371 	 0.877062 	 0.738812 	 0.745313 	  
 4.371234 	 6.345333 	 4.390479 	 0.879750 	 0.740750 	 0.744000 	  
 3.773876 	 6.181846 	 4.233280 	 0.877000 	 0.738750 	 0.744375 	  
 9.409478 	 4.924250 	 4.697018 	 0.879875 	 0.740812 	 0.744500 	  
 13.811063 	 4.245148 	 5.993914 	 0.877000 	 0.738812 	 0.743938 	  
 14.872160 	 4.848794 	 4.304020 	 0.879625 	 0.741250 	 0.744375 	  
 11.107232 	 6.383061 	 5.655935 	 0.877000 	 0.739250 	 0.745500 	  
 3.655976 	 6.596852 	 3.573042 	 0.879812 	 0.740812 	 0.744062 	  
 -0.902809 	 6.735188 	 4.476939 	 0.877313 	 0.739125 	 0.745500 	  
 3.294417 	 5.880023 	 4.414059 	 0.880188 	 0.740688 	 0.744062 	  
 10.281935 	 5.490168 	 7.691669 	 0.877375 	 0.738313 	 0.744625 	  
 13.834643 	 5.238649 	 7.243650 	 0.880000 	 0.740750 	 0.744500 	  
 13.221565 	 6.420789 	 9.145764 	 0.877625 	 0.739125 	 0.743875 	  
 10.321235 	 7.363986 	 9.750982 	 0.880188 	 0.740750 	 0.744313 	  
 5.377311 	 8.080816 	 5.593055 	 0.877375 	 0.739125 	 0.745000 	  
 2.461260 	 7.049587 	 6.379053 	 0.880062 	 0.740375 	 0.744250 	  
 3.396597 	 5.968054 	 6.559832 	 0.877500 	 0.738875 	 0.744688 	  
 8.238341 	 5.641079 	 5.184337 	 0.880125 	 0.740688 	 0.744437 	  
 11.555251 	 5.163193 	 5.561616 	 0.877437 	 0.739250 	 0.745062 	  
 9.464497 	 2.572545 	 3.966041 	 0.880437 	 0.741063 	 0.743938 	  
 4.748513 	 0.799335 	 -1.056483 	 0.877563 	 0.739375 	 0.745750 	  
 0.653466 	 1.931171 	 -4.106153 	 0.880500 	 0.739875 	 0.743750 	  
 1.062185 	 4.169692 	 -2.455558 	 0.877750 	 0.741063 	 0.745750 	  
 5.809609 	 4.106812 	 0.515512 	 0.880437 	 0.739250 	 0.743750 	  
 11.460931 	 2.912096 	 -0.891424 	 0.877500 	 0.741000 	 0.745938 	  
 15.375198 	 2.974976 	 -3.728874 	 0.879125 	 0.739187 	 0.743563 	  
 16.507035 	 4.685307 	 -4.609191 	 0.879188 	 0.741000 	 0.745563 	  
 10.399834 	 5.087737 	 -1.315862 	 0.878000 	 0.739063 	 0.743563 	  
 5.935369 	 4.333180 	 2.016767 	 0.880375 	 0.740938 	 0.744500 	  
 10.486294 	 4.911674 	 4.626279 	 0.877812 	 0.738750 	 0.744563 	  
 19.226586 	 6.106390 	 4.170400 	 0.880437 	 0.740500 	 0.744563 	  
 21.207299 	 6.131542 	 3.486582 	 0.878062 	 0.738875 	 0.743500 	  
 14.581341 	 4.798490 	 6.905671 	 0.880313 	 0.740688 	 0.744750 	  
 8.167602 	 5.213497 	 9.790282 	 0.877688 	 0.738750 	 0.744000 	  
 8.089002 	 7.514897 	 4.445499 	 0.880437 	 0.740500 	 0.744625 	  
 8.497720 	 10.734343 	 2.394046 	 0.877812 	 0.738750 	 0.744000 	  
 8.081142 	 10.507976 	 -0.624184 	 0.880313 	 0.740563 	 0.744688 	  
 9.660997 	 7.074739 	 6.276873 	 0.878125 	 0.738875 	 0.743625 	  
 10.737813 	 4.647579 	 6.952831 	 0.880062 	 0.740500 	 0.744750 	  
 9.440917 	 5.980630 	 8.752765 	 0.877437 	 0.738688 	 0.744250 	  
 8.930019 	 7.766417 	 7.385130 	 0.880250 	 0.740500 	 0.744688 	  
 6.037548 	 10.809799 	 8.328327 	 0.877563 	 0.738563 	 0.743625 	  
 1.958222 	 11.903907 	 6.669872 	 0.879625 	 0.740875 	 0.745250 	  
 4.206174 	 12.469825 	 3.950321 	 0.877812 	 0.738688 	 0.743500 	  
 9.826056 	 12.369218 	 1.859568 	 0.880250 	 0.740625 	 0.744375 	  
 11.712450 	 12.909984 	 -3.516655 	 0.877375 	 0.738688 	 0.745250 	  
 11.272292 	 12.067395 	 -8.523459 	 0.880437 	 0.740187 	 0.744062 	  
 7.546664 	 9.942058 	 -6.920024 	 0.877250 	 0.738688 	 0.745563 	  
 -0.053932 	 6.584276 	 1.505869 	 0.880188 	 0.740313 	 0.744000 	  
 -3.425861 	 6.156694 	 3.667362 	 0.877188 	 0.738875 	 0.745563 	  
 4.135435 	 6.848372 	 6.001774 	 0.880062 	 0.739750 	 0.743688 	  
 12.577047 	 7.540049 	 6.080374 	 0.877000 	 0.739437 	 0.745812 	  
 14.722820 	 6.911251 	 7.896028 	 0.880563 	 0.739625 	 0.743750 	  
 11.138672 	 6.383061 	 8.760625 	 0.877500 	 0.741313 	 0.745688 	  
 5.660270 	 6.181846 	 6.921391 	 0.879188 	 0.739125 	 0.743812 	  
 3.781736 	 7.376562 	 4.076080 	 0.878062 	 0.741437 	 0.745688 	  
 6.084708 	 8.483246 	 5.467296 	 0.877875 	 0.739250 	 0.743688 	  
 12.443428 	 8.231727 	 4.107520 	 0.880188 	 0.741125 	 0.744750 	  
 15.500958 	 7.917328 	 5.640215 	 0.877437 	 0.739250 	 0.744125 	  
 15.202279 	 7.628081 	 6.520532 	 0.880250 	 0.741125 	 0.744625 	  
 13.402345 	 6.320181 	 8.446226 	 0.877812 	 0.739313 	 0.743750 	  
 11.280151 	 4.748186 	 5.058577 	 0.880313 	 0.741313 	 0.744688 	  
 9.102939 	 5.590776 	 8.116107 	 0.877625 	 0.739187 	 0.744188 	  
 11.688870 	 8.156271 	 7.644509 	 0.880250 	 0.741125 	 0.744812 	  
 15.909676 	 10.482824 	 4.775618 	 0.878000 	 0.739437 	 0.743563 	  
 17.623151 	 11.325413 	 -2.502718 	 0.880125 	 0.741375 	 0.744625 	  
 13.661724 	 12.029667 	 -2.675638 	 0.877250 	 0.739187 	 0.745062 	  
 8.285501 	 9.539627 	 -2.667778 	 0.880375 	 0.741500 	 0.744188 	  
 2.610600 	 6.445941 	 2.661285 	 0.877375 	 0.739375 	 0.745062 	  
 0.189727 	 4.735610 	 5.365116 	 0.880188 	 0.741063 	 0.744313 	  
 4.764233 	 6.458517 	 5.514456 	 0.877313 	 0.739437 	 0.744812 	  
 12.427708 	 7.213074 	 3.117164 	 0.880437 	 0.741000 	 0.744375 	  
 14.007563 	 6.030934 	 3.612342 	 0.877375 	 0.739250 	 0.744313 	  
 9.260138 	 5.200921 	 3.793121 	 0.880437 	 0.741187 	 0.744500 	  
 5.094352 	 5.615928 	 5.105737 	 0.877812 	 0.739313 	 0.744500 	  
 3.577376 	 5.351832 	 6.080374 	 0.880188 	 0.740938 	 0.744563 	  
 4.088275 	 4.760762 	 8.917825 	 0.877625 	 0.739250 	 0.743938 	  
 9.896796 	 5.087737 	 5.883875 	 0.880500 	 0.740812 	 0.744250 	  
 14.015423 	 6.181846 	 6.135394 	 0.877188 	 0.738875 	 0.745625 	  
 14.589201 	 6.043510 	 7.267230 	 0.879875 	 0.740812 	 0.743938 	  
 10.250495 	 6.735188 	 3.463002 	 0.877750 	 0.738812 	 0.745500 	  
 3.797456 	 7.238226 	 3.439422 	 0.880250 	 0.739688 	 0.743875 	  
 -1.508027 	 7.867024 	 2.354746 	 0.877437 	 0.739125 	 0.745750 	  
 -1.751686 	 7.125043 	 4.280440 	 0.880437 	 0.739000 	 0.743625 	  
 5.157231 	 6.735188 	 2.048207 	 0.877437 	 0.740625 	 0.745875 	  
 12.702807 	 5.603352 	 4.091800 	 0.879000 	 0.739125 	 0.743750 	  
 14.722820 	 3.905597 	 4.956398 	 0.879188 	 0.741625 	 0.745563 	  
 10.667073 	 3.767262 	 5.514456 	 0.877750 	 0.739375 	 0.743688 	  
 5.542370 	 3.830141 	 2.889224 	 0.880000 	 0.741313 	 0.744563 	  
 3.097918 	 3.503166 	 4.673438 	 0.877437 	 0.739375 	 0.745563 	  
 8.238341 	 3.151040 	 5.184337 	 0.880125 	 0.741063 	 0.744062 	  
 14.101882 	 4.710458 	 3.360823 	 0.877188 	 0.739313 	 0.745625 	  
 16.845013 	 6.332757 	 -0.152586 	 0.880188 	 0.741063 	 0.744125 	  
 15.854657 	 7.414290 	 2.056067 	 0.877313 	 0.739125 	 0.745313 	  
 10.722093 	 6.647156 	 0.939951 	 0.880062 	 0.741063 	 0.744188 	  
 5.023612 	 6.458517 	 4.288300 	 0.877313 	 0.739250 	 0.745688 	  
 5.935369 	 8.646734 	 1.796688 	 0.880062 	 0.740750 	 0.744062 	  
 12.781407 	 11.023590 	 3.793121 	 0.877125 	 0.739125 	 0.745500 	  
 16.554194 	 10.948134 	 3.313663 	 0.880062 	 0.740750 	 0.744188 	  
 14.117602 	 8.344911 	 6.080374 	 0.877188 	 0.738812 	 0.745125 	  
 11.594550 	 6.747764 	 7.675949 	 0.879875 	 0.741250 	 0.744563 	  
 10.454854 	 8.282031 	 5.608775 	 0.877250 	 0.738875 	 0.744375 	  
 8.592040 	 9.451595 	 5.459436 	 0.880188 	 0.741125 	 0.744625 	  
 7.916082 	 7.527473 	 5.050717 	 0.877500 	 0.739187 	 0.744000 	  
 12.223348 	 3.754686 	 1.898867 	 0.880188 	 0.740812 	 0.744812 	  
 14.762120 	 3.880445 	 3.376543 	 0.877625 	 0.739375 	 0.743938 	  
 14.880020 	 6.219574 	 2.173967 	 0.880000 	 0.741063 	 0.744375 	  
 12.844286 	 8.131119 	 4.610559 	 0.877437 	 0.739500 	 0.745500 	  
 10.344815 	 8.734765 	 2.001047 	 0.880188 	 0.741063 	 0.744250 	  
 3.750296 	 8.671886 	 -1.818901 	 0.877250 	 0.739063 	 0.744750 	  
 -0.627710 	 8.483246 	 0.578392 	 0.879938 	 0.741250 	 0.744188 	  
 1.258684 	 9.388715 	 0.436912 	 0.877250 	 0.739000 	 0.745313 	  
 5.880349 	 8.785069 	 4.091800 	 0.880062 	 0.740688 	 0.744250 	  
 7.420904 	 8.583854 	 6.245433 	 0.877375 	 0.739000 	 0.744750 	  
 6.768526 	 9.350987 	 6.520532 	 0.880250 	 0.740875 	 0.744188 	  
 3.616676 	 10.055241 	 5.160757 	 0.877250 	 0.738688 	 0.745000 	  
 1.722422 	 9.552203 	 2.645565 	 0.880250 	 0.740688 	 0.744250 	  
 5.322291 	 9.527051 	 3.549462 	 0.877500 	 0.738938 	 0.745250 	  
 10.706373 	 8.935981 	 3.297943 	 0.880313 	 0.740688 	 0.744000 	  
 10.737813 	 8.734765 	 2.708445 	 0.877375 	 0.739938 	 0.745688 	  
 8.419121 	 8.282031 	 0.625552 	 0.880437 	 0.739812 	 0.743750 	  
 7.986822 	 7.011859 	 0.036053 	 0.877437 	 0.741250 	 0.745875 	  
 7.845343 	 6.634580 	 2.849924 	 0.879500 	 0.739375 	 0.743812 	  
 8.741380 	 7.426866 	 3.030704 	 0.877938 	 0.741000 	 0.745812 	  
 11.995409 	 7.439442 	 7.864588 	 0.878000 	 0.739063 	 0.743875 	  
 17.387352 	 5.892599 	 3.219343 	 0.879875 	 0.741500 	 0.745000 	  
 19.092966 	 5.138041 	 5.868155 	 0.877750 	 0.739250 	 0.743812 	  
 15.249439 	 4.949402 	 3.368683 	 0.880125 	 0.741125 	 0.744563 	  
 8.096862 	 5.993206 	 4.476939 	 0.877250 	 0.739250 	 0.744875 	  
 4.363374 	 7.200498 	 4.021061 	 0.880375 	 0.740875 	 0.744437 	  
 6.399107 	 7.313682 	 3.714522 	 0.877437 	 0.739187 	 0.744375 	  
 13.174405 	 7.225650 	 6.096094 	 0.880125 	 0.740875 	 0.744625 	  
 15.563838 	 9.011437 	 3.565182 	 0.877313 	 0.739187 	 0.744000 	  
 13.913243 	 10.243881 	 0.932091 	 0.879812 	 0.741063 	 0.744750 	  
 9.818196 	 9.891754 	 2.244706 	 0.877500 	 0.739313 	 0.743750 	  
 5.841049 	 8.131119 	 3.211483 	 0.880125 	 0.741313 	 0.744688 	  
 2.264761 	 7.527473 	 5.113597 	 0.877250 	 0.739500 	 0.744938 	  
 5.180811 	 6.961555 	 5.121457 	 0.880125 	 0.741563 	 0.744437 	  
 10.525594 	 6.823220 	 7.935328 	 0.877500 	 0.739750 	 0.744500 	  
 11.343031 	 7.502321 	 8.021788 	 0.880125 	 0.741187 	 0.744625 	  
 8.914299 	 9.325836 	 4.838498 	 0.877437 	 0.739313 	 0.743875 	  
 8.033982 	 11.023590 	 6.614852 	 0.880188 	 0.741250 	 0.744375 	  
 6.116148 	 12.079971 	 4.170400 	 0.877375 	 0.739063 	 0.744875 	  
 5.180811 	 11.803300 	 6.080374 	 0.880000 	 0.741063 	 0.744313 	  
 6.886426 	 10.445096 	 4.170400 	 0.877313 	 0.739125 	 0.744563 	  
 9.126518 	 7.615505 	 1.380109 	 0.880313 	 0.740500 	 0.744625 	  
 7.727443 	 6.383061 	 2.543385 	 0.877500 	 0.739125 	 0.743875 	  
 3.789596 	 6.144118 	 -0.907143 	 0.880437 	 0.741000 	 0.744313 	  
 -3.685240 	 5.502744 	 2.401906 	 0.877500 	 0.738750 	 0.745563 	  
 -8.086826 	 3.893021 	 0.413332 	 0.880250 	 0.740375 	 0.744062 	  
 -4.628437 	 3.364831 	 2.048207 	 0.877437 	 0.738812 	 0.745688 	  
 5.251551 	 3.176191 	 0.484072 	 0.880188 	 0.739812 	 0.743875 	  
 9.920376 	 2.949824 	 1.112870 	 0.877375 	 0.740437 	 0.745938 	  
 8.529160 	 2.371330 	 5.781695 	 0.880000 	 0.738938 	 0.743750 	  
 7.413044 	 1.830564 	 6.669872 	 0.877938 	 0.741000 	 0.745875 	  
 4.772093 	 2.547393 	 9.428723 	 0.878437 	 0.739063 	 0.743875 	  
 3.640256 	 4.559547 	 7.385130 	 0.879000 	 0.741125 	 0.745563 	  
 5.974669 	 7.112467 	 4.885658 	 0.878250 	 0.739063 	 0.743688 	  
 11.170112 	 7.275954 	 2.370466 	 0.879563 	 0.741000 	 0.745250 	  
 13.158685 	 6.106390 	 -1.826760 	 0.877563 	 0.739250 	 0.744000 	  
 13.811063 	 5.188345 	 -1.056483 	 0.880875 	 0.741000 	 0.744688 	  
 11.429491 	 6.106390 	 2.653425 	 0.877938 	 0.739563 	 0.744125 	  
 9.236558 	 7.527473 	 3.455142 	 0.880875 	 0.741250 	 0.744750 	  
 9.110798 	 8.344911 	 3.690942 	 0.878812 	 0.739250 	 0.743688 	  
 14.840720 	 8.508398 	 5.050717 	 0.881062 	 0.740812 	 0.744688 	  
 19.918264 	 8.307183 	 6.457653 	 0.878188 	 0.739375 	 0.744812 	  
 21.395939 	 8.847949 	 1.152170 	 0.881250 	 0.740500 	 0.744563 	  
 17.701751 	 10.294184 	 4.170400 	 0.878375 	 0.738938 	 0.744062 	  
 12.042569 	 10.168425 	 3.227203 	 0.881062 	 0.740688 	 0.744625 	  
 5.951089 	 8.747341 	 2.354746 	 0.879000 	 0.739063 	 0.744062 	  
 4.905712 	 7.929904 	 1.128590 	 0.881500 	 0.741063 	 0.745000 	  
 10.973612 	 9.174924 	 1.395829 	 0.879062 	 0.739187 	 0.743938 	  
 16.892173 	 9.187500 	 5.396556 	 0.882062 	 0.741125 	 0.744437 	  
 15.941116 	 9.489323 	 4.123240 	 0.879062 	 0.739125 	 0.744938 	  
 12.844286 	 10.281608 	 5.797415 	 0.881875 	 0.740812 	 0.744688 	  
 7.145805 	 10.784647 	 6.811352 	 0.879062 	 0.738938 	 0.743875 	  
 1.172224 	 9.439019 	 5.828855 	 0.881500 	 0.740938 	 0.744500 	  
 1.840322 	 7.590353 	 3.407983 	 0.878750 	 0.738812 	 0.745250 	  
 9.826056 	 6.760340 	 7.841008 	 0.881563 	 0.740625 	 0.744125 	  
 12.836426 	 6.647156 	 6.331893 	 0.878625 	 0.738688 	 0.745125 	  
 9.668857 	 5.314105 	 6.088234 	 0.881563 	 0.740625 	 0.744563 	  
 8.049702 	 4.031357 	 5.160757 	 0.879125 	 0.738625 	 0.743875 	  
 6.878566 	 3.691806 	 4.657719 	 0.881688 	 0.740625 	 0.744250 	  
 3.710996 	 5.276377 	 4.759898 	 0.878688 	 0.738812 	 0.745875 	  
 6.351947 	 4.987130 	 3.942461 	 0.881812 	 0.740688 	 0.743938 	  
 11.319451 	 3.855293 	 1.042130 	 0.878938 	 0.739500 	 0.745812 	  
 12.749967 	 2.056931 	 0.719871 	 0.881750 	 0.739938 	 0.743938 	  
 11.358751 	 1.252070 	 1.340809 	 0.879000 	 0.741563 	 0.745750 	  
 7.963242 	 1.239494 	 2.787045 	 0.880812 	 0.739125 	 0.743750 	  
 4.905712 	 1.000551 	 2.056067 	 0.879563 	 0.741625 	 0.745938 	  
 1.730282 	 -0.345077 	 7.180770 	 0.879625 	 0.739563 	 0.743812 	  
 6.351947 	 -0.747508 	 6.858511 	 0.881563 	 0.741500 	 0.744812 	  
 14.227642 	 1.289798 	 7.015711 	 0.879000 	 0.739250 	 0.744125 	  
 20.154063 	 3.641502 	 9.192924 	 0.881563 	 0.741125 	 0.745000 	  
 19.218726 	 4.534395 	 10.552699 	 0.879625 	 0.739063 	 0.743688 	  
 13.103666 	 4.961978 	 8.917825 	 0.881375 	 0.741063 	 0.745125 	  
 5.966809 	 5.980630 	 5.860295 	 0.879000 	 0.739563 	 0.743938 	  
 5.919649 	 5.125465 	 5.805275 	 0.881938 	 0.741313 	 0.744812 	  
 12.977906 	 2.346178 	 -0.073986 	 0.879125 	 0.739625 	 0.744000 	  
 18.786427 	 1.742532 	 -4.632771 	 0.881812 	 0.741250 	 0.744750 	  
 20.515622 	 3.754686 	 -8.531319 	 0.879250 	 0.739500 	 0.743875 	  
 17.913970 	 2.886944 	 -7.226563 	 0.881625 	 0.741375 	 0.744563 	  
 10.281935 	 2.710881 	 -7.871081 	 0.879000 	 0.739750 	 0.745750 	  
 5.998249 	 3.804989 	 -5.465929 	 0.881938 	 0.741250 	 0.744062 	  
 7.813903 	 5.980630 	 -1.080063 	 0.878750 	 0.739750 	 0.745812 	  
 11.869650 	 8.294607 	 0.554812 	 0.881688 	 0.741187 	 0.744000 	  
 13.300165 	 9.740842 	 0.028194 	 0.879000 	 0.739563 	 0.745688 	  
 9.613837 	 8.609006 	 3.376543 	 0.881688 	 0.740688 	 0.744000 	  
 4.048975 	 9.640235 	 3.242923 	 0.878750 	 0.739125 	 0.745812 	  
 0.048248 	 10.910406 	 3.588762 	 0.881688 	 0.740500 	 0.743938 	  
 -0.478370 	 11.199653 	 6.465513 	 0.878750 	 0.739063 	 0.745750 	  
 3.789596 	 10.646311 	 7.259370 	 0.881750 	 0.739625 	 0.743875 	  
 8.159742 	 10.596007 	 7.730969 	 0.878875 	 0.740688 	 0.745688 	  
 9.244418 	 9.841450 	 9.271524 	 0.881688 	 0.739187 	 0.743875 	  
 8.065422 	 9.615083 	 7.982488 	 0.878750 	 0.741187 	 0.745938 	  
 4.496993 	 10.030089 	 9.578063 	 0.881250 	 0.739063 	 0.743688 	  
 0.236887 	 9.677962 	 6.402633 	 0.878875 	 0.740938 	 0.745875 	  
 0.897125 	 7.904752 	 5.506596 	 0.879812 	 0.739375 	 0.743688 	  
 8.552740 	 6.659732 	 5.758115 	 0.881437 	 0.741313 	 0.744688 	  
 14.314102 	 6.496245 	 7.220070 	 0.878563 	 0.739375 	 0.744437 	  
 16.334115 	 6.433365 	 6.096094 	 0.881437 	 0.741187 	 0.744313 	  
 15.524538 	 6.018358 	 7.526609 	 0.878500 	 0.739437 	 0.745750 	  
 10.478434 	 4.421211 	 6.952831 	 0.881313 	 0.740563 	 0.744062 	  
 3.058618 	 4.069085 	 6.654152 	 0.878500 	 0.739500 	 0.745812 	  
 1.856042 	 5.691383 	 6.866371 	 0.881625 	 0.740938 	 0.744000 	  
 9.605977 	 10.030089 	 8.344047 	 0.878688 	 0.739500 	 0.745938 	  
 16.491315 	 12.784224 	 7.668089 	 0.881375 	 0.741125 	 0.744000 	  
 17.269452 	 13.563934 	 4.327600 	 0.878563 	 0.739187 	 0.745688 	  
 13.370905 	 12.218306 	 4.296160 	 0.881437 	 0.741187 	 0.744000 	  
 8.379821 	 12.507553 	 5.365116 	 0.878563 	 0.739563 	 0.745750 	  
 5.448050 	 13.035744 	 4.484799 	 0.881563 	 0.741063 	 0.744250 	  
 8.859279 	 14.167580 	 4.940678 	 0.878563 	 0.739000 	 0.745563 	  
 15.571698 	 14.155004 	 4.445499 	 0.881250 	 0.741063 	 0.744313 	  
 16.837153 	 14.092124 	 4.508379 	 0.878750 	 0.739187 	 0.744750 	  
 13.952543 	 13.262111 	 3.313663 	 0.881500 	 0.741063 	 0.744437 	  
 9.857496 	 12.105123 	 7.699529 	 0.878750 	 0.739313 	 0.744437 	  
 6.084708 	 10.294184 	 2.142527 	 0.881563 	 0.741000 	 0.744688 	  
 5.565950 	 10.168425 	 1.631628 	 0.879250 	 0.739125 	 0.743812 	  
 10.148315 	 10.306760 	 1.521589 	 0.881375 	 0.741313 	 0.744938 	  
 10.926453 	 9.439019 	 -2.785677 	 0.878875 	 0.739375 	 0.744688 	  
 6.226188 	 6.772916 	 -4.695651 	 0.881688 	 0.741125 	 0.744250 	  
 1.408023 	 4.798490 	 -5.646708 	 0.878625 	 0.739375 	 0.745313 	  
 -1.177908 	 4.232572 	 -1.268702 	 0.881500 	 0.740750 	 0.744125 	  
 -2.459084 	 6.068662 	 0.963530 	 0.878688 	 0.738938 	 0.745313 	  
 0.008948 	 6.609428 	 0.782751 	 0.881500 	 0.740563 	 0.744313 	  
 6.171168 	 4.622427 	 3.824561 	 0.878688 	 0.738875 	 0.745188 	  
 12.820706 	 1.566469 	 6.787772 	 0.881563 	 0.740750 	 0.744250 	  
 14.479161 	 2.195267 	 2.999264 	 0.878500 	 0.738750 	 0.745437 	  
 10.926453 	 5.238649 	 4.359039 	 0.881563 	 0.740563 	 0.744062 	  
 3.490917 	 7.011859 	 5.427996 	 0.878563 	 0.738812 	 0.745500 	  
 -0.753470 	 6.609428 	 4.154680 	 0.881500 	 0.740500 	 0.744188 	  
 2.461260 	 6.118966 	 2.606265 	 0.879000 	 0.739063 	 0.745750 	  
 9.212978 	 4.358332 	 1.545169 	 0.881812 	 0.739812 	 0.743812 	  
 13.795343 	 3.893021 	 -0.702784 	 0.878875 	 0.740250 	 0.745875 	  
 14.683520 	 4.521819 	 -0.804964 	 0.881625 	 0.739437 	 0.743812 	  
 10.714233 	 4.811066 	 2.284006 	 0.879250 	 0.741250 	 0.745812 	  
 3.145078 	 3.654078 	 3.164323 	 0.879500 	 0.739000 	 0.743812 	  
 2.076121 	 3.138464 	 2.967824 	 0.881688 	 0.740812 	 0.744938 	  
 7.468064 	 2.597697 	 6.151114 	 0.879250 	 0.739000 	 0.744000 	  
 12.836426 	 0.120233 	 6.261153 	 0.881688 	 0.740812 	 0.744938 	  
 13.740324 	 -1.552369 	 6.772052 	 0.879313 	 0.739187 	 0.743812 	  
 12.687087 	 0.308873 	 6.677732 	 0.881875 	 0.741313 	 0.744812 	  
 9.857496 	 3.100736 	 8.862805 	 0.878812 	 0.739125 	 0.744688 	  
 5.833189 	 4.094236 	 7.589489 	 0.881500 	 0.740812 	 0.744563 	  
 5.597390 	 4.861370 	 8.359767 	 0.879188 	 0.738875 	 0.743750 	  
 12.954326 	 5.779415 	 7.943188 	 0.881500 	 0.741063 	 0.744812 	  
 19.305185 	 7.074739 	 3.596622 	 0.878625 	 0.739250 	 0.744875 	  
 20.106903 	 7.678385 	 1.946027 	 0.881625 	 0.741063 	 0.744437 	  
 13.418065 	 6.798068 	 1.584468 	 0.878750 	 0.739000 	 0.744125 	  
 3.679556 	 5.087737 	 0.861351 	 0.881500 	 0.741063 	 0.744625 	  
 -3.866019 	 6.043510 	 1.521589 	 0.879000 	 0.739000 	 0.744250 	  
 -1.350828 	 6.697460 	 -0.537725 	 0.881563 	 0.740812 	 0.744750 	  
 7.530944 	 7.640657 	 -1.496642 	 0.878563 	 0.739063 	 0.744437 	  
 12.443428 	 7.967632 	 1.183610 	 0.881563 	 0.740875 	 0.744563 	  
 11.020772 	 8.583854 	 2.527665 	 0.878812 	 0.739125 	 0.744437 	  
 8.222621 	 9.715690 	 1.301509 	 0.881375 	 0.741250 	 0.744437 	  
 4.174734 	 10.822375 	 5.742395 	 0.878625 	 0.739000 	 0.744812 	  
 2.036821 	 11.048742 	 5.349396 	 0.881500 	 0.740625 	 0.744500 	  
 6.257628 	 10.998438 	 7.243650 	 0.878750 	 0.738938 	 0.744313 	  
 13.598844 	 10.633735 	 8.210427 	 0.881375 	 0.740688 	 0.744563 	  
 15.838937 	 10.055241 	 8.446226 	 0.878812 	 0.738812 	 0.743938 	  
 13.056506 	 9.451595 	 8.281167 	 0.881500 	 0.740938 	 0.744625 	  
 7.971102 	 8.885677 	 9.098604 	 0.878750 	 0.739063 	 0.745062 	  
 3.325857 	 8.734765 	 5.765975 	 0.881625 	 0.740563 	 0.744250 	  
 2.256901 	 9.954634 	 5.200057 	 0.878750 	 0.739063 	 0.745625 	  
 7.271564 	 9.992361 	 6.434073 	 0.881750 	 0.740750 	 0.744000 	  
 12.467008 	 8.319759 	 3.541602 	 0.878875 	 0.739313 	 0.745750 	  
 12.749967 	 4.672731 	 -1.017183 	 0.881688 	 0.740000 	 0.743938 	  
 9.291578 	 3.063008 	 -2.235479 	 0.879062 	 0.741250 	 0.745938 	  
 4.151155 	 2.673153 	 -4.695651 	 0.881500 	 0.739250 	 0.743812 	  
 1.187944 	 4.949402 	 -1.905360 	 0.879188 	 0.741250 	 0.745938 	  
 6.627047 	 6.986707 	 -0.993603 	 0.879750 	 0.739375 	 0.743812 	  
 18.880747 	 8.030512 	 0.452632 	 0.881188 	 0.741250 	 0.745437 	  
 23.392372 	 8.583854 	 3.675222 	 0.879375 	 0.739375 	 0.743875 	  
 21.427379 	 6.798068 	 5.561616 	 0.881750 	 0.741437 	 0.744563 	  
 16.821434 	 4.408635 	 3.895301 	 0.879062 	 0.739187 	 0.744938 	  
 13.590984 	 4.823642 	 1.277929 	 0.881625 	 0.740812 	 0.744500 	  
 11.209412 	 5.414712 	 4.115380 	 0.879000 	 0.739500 	 0.744375 	  
 13.040786 	 4.358332 	 4.264720 	 0.881812 	 0.741063 	 0.744500 	  
 16.522755 	 4.207420 	 1.199330 	 0.879000 	 0.739187 	 0.744125 	  
 17.300892 	 4.785914 	 5.294376 	 0.881625 	 0.741000 	 0.744875 	  
 13.111526 	 4.886522 	 6.001774 	 0.879313 	 0.739125 	 0.743812 	  
 8.678500 	 4.119388 	 4.665579 	 0.881750 	 0.741063 	 0.744812 	  
 3.467337 	 4.748186 	 7.094311 	 0.878938 	 0.739125 	 0.744625 	  
 2.335500 	 4.735610 	 6.300453 	 0.881938 	 0.740938 	 0.744500 	  
 8.513440 	 4.785914 	 5.090017 	 0.878938 	 0.739000 	 0.744625 	  
 16.208356 	 5.238649 	 5.514456 	 0.881750 	 0.741063 	 0.744500 	  
 16.184776 	 7.049587 	 2.684865 	 0.879188 	 0.738812 	 0.744062 	  
 10.046135 	 7.452018 	 4.115380 	 0.881750 	 0.740688 	 0.744812 	  
 2.296201 	 7.200498 	 -0.184026 	 0.879000 	 0.738875 	 0.743938 	  
 -1.146468 	 6.948979 	 1.325089 	 0.881688 	 0.740875 	 0.744313 	  
 1.117204 	 8.206575 	 3.683082 	 0.878750 	 0.738688 	 0.745563 	  
 7.593823 	 9.640235 	 5.836715 	 0.881563 	 0.740750 	 0.744313 	  
 11.720310 	 10.407368 	 4.767758 	 0.878750 	 0.738750 	 0.744750 	  
 11.798910 	 10.394792 	 3.447282 	 0.881437 	 0.740563 	 0.744500 	  
 7.696003 	 9.854026 	 4.830638 	 0.878500 	 0.738750 	 0.744938 	  
 0.637746 	 7.301106 	 7.864588 	 0.881625 	 0.740500 	 0.744375 	  
 -4.219718 	 6.295029 	 8.760625 	 0.878625 	 0.738563 	 0.745250 	  
 -0.022492 	 7.854448 	 6.819212 	 0.881500 	 0.740688 	 0.744188 	  
 8.953599 	 10.495400 	 4.799198 	 0.878875 	 0.739000 	 0.745750 	  
 14.156902 	 8.973709 	 2.142527 	 0.881563 	 0.740375 	 0.743938 	  
 15.265159 	 7.565201 	 -1.441622 	 0.878625 	 0.740625 	 0.745875 	  
 10.101155 	 7.426866 	 -2.840697 	 0.881750 	 0.739500 	 0.743875 	  
 3.655976 	 8.558702 	 -4.758531 	 0.878750 	 0.741063 	 0.745938 	  
 1.895342 	 8.357487 	 -0.938583 	 0.879938 	 0.739063 	 0.743938 	  
 7.397324 	 5.905175 	 -4.247633 	 0.879938 	 0.741250 	 0.745875 	  
 12.529887 	 3.981053 	 1.222910 	 0.879062 	 0.738875 	 0.743688 	  
 11.736030 	 3.918173 	 0.106793 	 0.881437 	 0.740875 	 0.744812 	  
 9.747456 	 4.811066 	 1.105010 	 0.878750 	 0.739125 	 0.744875 	  
 8.796400 	 5.703959 	 4.956398 	 0.881563 	 0.740938 	 0.744625 	  
 5.267271 	 7.665809 	 8.108247 	 0.878688 	 0.738812 	 0.744500 	  
 4.897852 	 9.250380 	 7.911748 	 0.881625 	 0.741000 	 0.744750 	  
 12.089729 	 9.288108 	 3.643782 	 0.878875 	 0.738812 	 0.744000 	  
 19.918264 	 9.413867 	 4.728458 	 0.881375 	 0.741063 	 0.744875 	  
 19.147986 	 8.722190 	 3.549462 	 0.879000 	 0.739437 	 0.743938 	  
 14.392701 	 7.892176 	 5.145037 	 0.881563 	 0.741313 	 0.744750 	  
 8.230481 	 8.357487 	 4.901378 	 0.878688 	 0.739250 	 0.744875 	  
 4.536293 	 10.118121 	 4.421919 	 0.881563 	 0.741187 	 0.744625 	  
 4.811392 	 11.564356 	 2.944244 	 0.878875 	 0.739500 	 0.744250 	  
 11.162252 	 10.809799 	 6.473373 	 0.881500 	 0.741187 	 0.744750 	  
 14.235502 	 10.067817 	 4.759898 	 0.878875 	 0.739437 	 0.744062 	  
 11.657430 	 10.746919 	 4.146820 	 0.881500 	 0.741000 	 0.744938 	  
 7.806043 	 11.551780 	 7.180770 	 0.879000 	 0.739063 	 0.743750 	  
 3.270837 	 11.828451 	 5.561616 	 0.881437 	 0.741000 	 0.744688 	  
 -0.321171 	 11.413445 	 7.196490 	 0.878625 	 0.739063 	 0.745250 	  
 0.692766 	 10.797223 	 5.003557 	 0.881375 	 0.740875 	 0.744437 	  
 4.559873 	 10.772071 	 6.088234 	 0.878563 	 0.738875 	 0.744625 	  
 7.923942 	 9.916906 	 3.187903 	 0.881625 	 0.740875 	 0.744625 	  
 7.625263 	 9.677962 	 3.588762 	 0.878688 	 0.738750 	 0.744000 	  
 5.589530 	 9.753418 	 7.825288 	 0.881313 	 0.740625 	 0.744750 	  
 1.604523 	 10.281608 	 7.848868 	 0.878938 	 0.738938 	 0.744000 	  
 0.912845 	 10.306760 	 4.634139 	 0.881437 	 0.740750 	 0.744750 	  
 3.883915 	 9.250380 	 0.672711 	 0.878812 	 0.739375 	 0.744812 	  
 8.945739 	 7.125043 	 0.091073 	 0.881750 	 0.741063 	 0.744000 	  
 14.125462 	 6.420789 	 2.794905 	 0.878625 	 0.739375 	 0.745938 	  
 13.646004 	 5.892599 	 3.753821 	 0.881688 	 0.740125 	 0.743938 	  
 9.873216 	 6.496245 	 2.904944 	 0.878875 	 0.741313 	 0.745875 	  
 6.949305 	 6.395637 	 3.132883 	 0.881688 	 0.739250 	 0.743938 	  
 9.346598 	 6.118966 	 2.386186 	 0.878688 	 0.741187 	 0.745938 	  
 14.746400 	 3.817565 	 1.930307 	 0.880938 	 0.739063 	 0.743875 	  
 18.385568 	 2.044355 	 4.689158 	 0.878625 	 0.741187 	 0.745938 	  
 19.242306 	 2.572545 	 4.241140 	 0.880000 	 0.739313 	 0.743750 	  
 19.242306 	 5.238649 	 3.070004 	 0.879938 	 0.741313 	 0.745750 	  
 15.666017 	 5.729111 	 3.195763 	 0.879250 	 0.739313 	 0.743750 	  
 10.274075 	 4.094236 	 1.144310 	 0.881250 	 0.740938 	 0.744938 	  
 10.053995 	 3.364831 	 -0.356945 	 0.878938 	 0.739000 	 0.744062 	  
 16.365555 	 3.566046 	 0.531232 	 0.881375 	 0.740750 	 0.744750 	  
 19.446665 	 3.540894 	 -0.804964 	 0.878812 	 0.739313 	 0.744188 	  
 16.915753 	 3.792413 	 -2.062560 	 0.881563 	 0.741063 	 0.744750 	  
 10.926453 	 5.288953 	 -4.357672 	 0.879000 	 0.739375 	 0.744000 	  
 4.968592 	 6.647156 	 0.452632 	 0.881437 	 0.741250 	 0.744750 	  
 2.421960 	 6.722612 	 1.843848 	 0.878750 	 0.739563 	 0.744625 	  
 6.517007 	 5.968054 	 5.577336 	 0.881437 	 0.741125 	 0.744313 	  
 11.005052 	 5.037433 	 8.414786 	 0.878563 	 0.739313 	 0.745437 	  
 13.268725 	 4.521819 	 8.917825 	 0.881500 	 0.741250 	 0.744375 	  
 12.113309 	 5.553048 	 8.964985 	 0.878688 	 0.739125 	 0.744437 	  
 5.958949 	 6.445941 	 8.642726 	 0.881563 	 0.741063 	 0.744875 	  
 -2.073945 	 7.137619 	 10.513400 	 0.879000 	 0.739250 	 0.743938 	  
 -3.889599 	 7.213074 	 6.174694 	 0.881688 	 0.741063 	 0.744563 	  
 0.818525 	 6.697460 	 10.151841 	 0.878625 	 0.739125 	 0.745313 	  
 4.622753 	 5.502744 	 7.290810 	 0.881437 	 0.741250 	 0.744313 	  
 4.921432 	 6.596852 	 4.854218 	 0.878625 	 0.739250 	 0.744750 	  
 2.744219 	 6.735188 	 6.048934 	 0.881375 	 0.740812 	 0.744500 	  
 -2.914963 	 5.465016 	 4.492659 	 0.878812 	 0.739250 	 0.745000 	  
 -5.375135 	 3.830141 	 3.738102 	 0.881500 	 0.741063 	 0.744062 	  
 -1.382268 	 3.666654 	 5.404416 	 0.878500 	 0.739313 	 0.745875 	  
 7.373744 	 3.339679 	 8.147547 	 0.881500 	 0.740250 	 0.743875 	  
 13.905383 	 3.125888 	 8.068947 	 0.878625 	 0.740000 	 0.745875 	  
 14.683520 	 1.880868 	 8.619146 	 0.881500 	 0.739750 	 0.744000 	  
 11.303731 	 1.792836 	 5.695235 	 0.878500 	 0.741437 	 0.745938 	  
 7.004325 	 1.440709 	 2.244706 	 0.881500 	 0.739688 	 0.743750 	  
 7.287284 	 1.968899 	 -1.543801 	 0.878375 	 0.741500 	 0.745938 	  
 13.331605 	 2.094659 	 2.228986 	 0.881062 	 0.739688 	 0.743938 	  
 19.878964 	 1.214342 	 -3.956814 	 0.878563 	 0.741625 	 0.745812 	  
 20.185503 	 0.409480 	 -3.721014 	 0.880375 	 0.739437 	 0.743875 	  
 17.253732 	 0.849639 	 0.468352 	 0.879125 	 0.741750 	 0.745875 	  
 12.074009 	 3.276799 	 0.263993 	 0.879375 	 0.739437 	 0.743688 	  
 7.090785 	 5.276377 	 -2.903577 	 0.881250 	 0.741187 	 0.745188 	  
 6.564167 	 7.401714 	 -2.314079 	 0.878812 	 0.739437 	 0.744125 	  
 12.341248 	 7.615505 	 -0.144726 	 0.881688 	 0.741125 	 0.744563 	  
 15.508818 	 6.081238 	 0.350452 	 0.878625 	 0.739187 	 0.744313 	  
 15.021499 	 4.458939 	 3.533742 	 0.881500 	 0.741187 	 0.744688 	  
 11.759610 	 4.647579 	 5.844575 	 0.878812 	 0.739125 	 0.744000 	  
 4.599173 	 4.597275 	 8.579846 	 0.881437 	 0.741187 	 0.744750 	  
 -3.512321 	 3.528318 	 4.838498 	 0.878812 	 0.739625 	 0.744000 	  
 -2.687023 	 3.100736 	 0.452632 	 0.881500 	 0.741437 	 0.744750 	  
 5.919649 	 4.773338 	 4.429779 	 0.878688 	 0.739500 	 0.744000 	  
 14.793560 	 9.363563 	 4.123240 	 0.881313 	 0.741437 	 0.744938 	  
 17.654591 	 14.570011 	 3.211483 	 0.879125 	 0.739437 	 0.743688 	  
 13.716744 	 15.991094 	 1.812408 	 0.881313 	 0.740875 	 0.744563 	  
 5.023612 	 15.211384 	 2.739885 	 0.878375 	 0.739375 	 0.745375 	  
 1.070045 	 15.261688 	 5.860295 	 0.881563 	 0.741250 	 0.744250 	  
 3.451617 	 15.349720 	 6.520532 	 0.878625 	 0.739375 	 0.744125 	  
 9.008619 	 13.211807 	 7.400850 	 0.881313 	 0.741125 	 0.744750 	  
 12.828566 	 12.180578 	 6.850651 	 0.878812 	 0.739063 	 0.744125 	  
 12.726387 	 12.117699 	 4.539819 	 0.881250 	 0.740625 	 0.744688 	  
 8.702080 	 11.237381 	 5.765975 	 0.878563 	 0.739250 	 0.744313 	  
 5.227971 	 9.891754 	 4.807058 	 0.881563 	 0.741187 	 0.744250 	  
 3.593096 	 9.942058 	 2.527665 	 0.878563 	 0.739375 	 0.745625 	  
 7.609543 	 9.099468 	 3.022844 	 0.881625 	 0.740125 	 0.744062 	  
 14.015423 	 7.590353 	 0.987110 	 0.878625 	 0.739938 	 0.745812 	  
 19.423085 	 6.697460 	 2.417626 	 0.881750 	 0.740063 	 0.743875 	  
 16.719254 	 6.911251 	 3.274363 	 0.878437 	 0.741625 	 0.746000 	  
 9.723877 	 6.320181 	 1.757388 	 0.880750 	 0.739375 	 0.743875 	  
 5.463770 	 6.307605 	 6.473373 	 0.879188 	 0.741437 	 0.745938 	  
 7.247985 	 5.452440 	 3.903161 	 0.879750 	 0.739500 	 0.743875 	  
 14.754260 	 5.200921 	 4.909238 	 0.880500 	 0.741563 	 0.745688 	  
 18.055450 	 5.615928 	 4.909238 	 0.879437 	 0.739313 	 0.743750 	  
 17.607431 	 5.779415 	 5.396556 	 0.881500 	 0.741437 	 0.745125 	  
 13.795343 	 5.666231 	 7.880308 	 0.878938 	 0.739313 	 0.744250 	  
 8.489861 	 4.848794 	 6.158974 	 0.881563 	 0.741000 	 0.744875 	  
 2.516280 	 4.987130 	 3.816701 	 0.878750 	 0.739063 	 0.743812 	  
 1.132924 	 6.710036 	 -0.734224 	 0.881375 	 0.741063 	 0.744688 	  
 7.640983 	 9.162348 	 3.125023 	 0.878625 	 0.739187 	 0.745062 	  
 15.980416 	 10.067817 	 -0.608464 	 0.881188 	 0.741000 	 0.744500 	  
 17.096533 	 10.608583 	 5.868155 	 0.878437 	 0.739500 	 0.744563 	  
 12.026849 	 9.552203 	 5.317956 	 0.881375 	 0.741250 	 0.744625 	  
 4.921432 	 9.904330 	 6.245433 	 0.878750 	 0.739313 	 0.744437 	  
 3.349437 	 10.847527 	 6.103954 	 0.881000 	 0.741313 	 0.744812 	  
 8.882859 	 11.011014 	 3.848141 	 0.878500 	 0.739313 	 0.744062 	  
 14.070442 	 10.470248 	 4.854218 	 0.881125 	 0.741375 	 0.745062 	  
 14.274802 	 10.948134 	 2.464786 	 0.878625 	 0.739563 	 0.743688 	  
 11.020772 	 9.577355 	 3.219343 	 0.880938 	 0.741375 	 0.744938 	  
 5.196531 	 6.068662 	 6.599132 	 0.878500 	 0.739250 	 0.744125 	  
 -0.077512 	 4.534395 	 6.229713 	 0.880938 	 0.741187 	 0.744812 	  
 -1.342968 	 7.464594 	 4.374759 	 0.878625 	 0.739125 	 0.743875 	  
 5.542370 	 11.426021 	 3.494442 	 0.880875 	 0.741125 	 0.744688 	  
 13.197985 	 13.123775 	 4.492659 	 0.877750 	 0.739437 	 0.744313 	  
 15.107959 	 11.111622 	 2.747745 	 0.880437 	 0.741187 	 0.744500 	  
 9.771036 	 8.470670 	 0.814191 	 0.877625 	 0.739187 	 0.744125 	  
 2.398380 	 6.144118 	 -1.873920 	 0.877625 	 0.741563 	 0.744500 	  
 -2.128965 	 6.018358 	 -0.419825 	 0.875875 	 0.739625 	 0.745062 	  
 0.904985 	 5.666231 	 0.429052 	 0.879062 	 0.741250 	 0.744000 	  
 8.309081 	 4.848794 	 -2.337659 	 0.876125 	 0.739812 	 0.745875 	  
 13.142965 	 2.597697 	 -0.875704 	 0.879125 	 0.740375 	 0.743750 	  
 12.742107 	 2.572545 	 4.516239 	 0.876000 	 0.741875 	 0.745875 	  
 10.368394 	 4.194844 	 5.545896 	 0.878000 	 0.740000 	 0.743750 	  
 7.680283 	 5.653655 	 4.068220 	 0.875812 	 0.742313 	 0.745750 	  
 4.701353 	 6.144118 	 2.339026 	 0.876437 	 0.740250 	 0.743750 	  
 7.106505 	 6.383061 	 1.718088 	 0.877313 	 0.742250 	 0.745750 	  
 11.075792 	 7.112467 	 2.763465 	 0.875375 	 0.740125 	 0.743750 	  
 12.702807 	 6.131542 	 3.376543 	 0.877250 	 0.742125 	 0.744812 	  
 10.934313 	 4.245148 	 2.079647 	 0.874563 	 0.740187 	 0.744375 	  
 7.656703 	 3.528318 	 -1.127223 	 0.877812 	 0.742250 	 0.744437 	  
 3.042898 	 2.585121 	 -0.537725 	 0.874750 	 0.739938 	 0.744062 	  
 0.268327 	 1.704804 	 -0.616324 	 0.877313 	 0.741875 	 0.744750 	  
 4.135435 	 2.949824 	 2.574825 	 0.874625 	 0.739875 	 0.744188 	  
 12.278368 	 4.056509 	 2.629845 	 0.876875 	 0.741750 	 0.744500 	  
 14.196202 	 5.578200 	 2.346886 	 0.874125 	 0.739938 	 0.744125 	  
 9.362318 	 7.326258 	 4.296160 	 0.876938 	 0.742188 	 0.744875 	  
 3.396597 	 8.407791 	 5.443716 	 0.876062 	 0.739625 	 0.743688 	  
 1.848182 	 8.734765 	 3.573042 	 0.878500 	 0.741875 	 0.744563 	  
 5.172951 	 8.080816 	 7.503029 	 0.875437 	 0.739750 	 0.745250 	  
 12.718527 	 6.860948 	 6.599132 	 0.877812 	 0.741625 	 0.744250 	  
 16.868593 	 6.747764 	 5.860295 	 0.875125 	 0.739437 	 0.744563 	  
 14.361262 	 5.402136 	 7.793848 	 0.877625 	 0.741500 	 0.744750 	  
 9.181538 	 3.591198 	 4.547679 	 0.874062 	 0.739125 	 0.744000 	  
 2.665619 	 2.798913 	 3.077864 	 0.877062 	 0.741375 	 0.744625 	  
 -1.665227 	 3.540894 	 4.343320 	 0.873938 	 0.739313 	 0.744688 	  
 1.423743 	 3.503166 	 6.206134 	 0.878125 	 0.741000 	 0.744375 	  
 8.104722 	 3.478014 	 9.428723 	 0.873188 	 0.739000 	 0.744125 	  
 12.522027 	 3.943325 	 5.255077 	 0.876875 	 0.741250 	 0.744812 	  
 11.170112 	 4.383484 	 6.426213 	 0.873812 	 0.739313 	 0.743625 	  
 6.862846 	 4.848794 	 7.440150 	 0.875875 	 0.741313 	 0.744437 	  
 3.160798 	 6.974131 	 4.634139 	 0.872875 	 0.739313 	 0.745500 	  
 2.673479 	 9.602507 	 1.105010 	 0.876000 	 0.741313 	 0.743938 	  
 5.644550 	 10.168425 	 -0.066126 	 0.873000 	 0.740437 	 0.745875 	  
 9.267998 	 8.596430 	 1.435129 	 0.876625 	 0.740063 	 0.743875 	  
 13.040786 	 8.030512 	 2.095367 	 0.874563 	 0.741812 	 0.745875 	  
 15.076519 	 8.432942 	 2.692725 	 0.875500 	 0.739437 	 0.743812 	  
 14.526321 	 10.822375 	 4.508379 	 0.876625 	 0.742000 	 0.745688 	  
 12.309808 	 12.142850 	 5.883875 	 0.875938 	 0.739625 	 0.743688 	  
 12.223348 	 10.004937 	 2.362606 	 0.878750 	 0.741812 	 0.744812 	  
 15.351618 	 8.269455 	 3.808841 	 0.876000 	 0.739750 	 0.743875 	  
 19.823944 	 8.181423 	 5.876015 	 0.879437 	 0.742000 	 0.744437 	  
 21.026520 	 9.036588 	 7.408710 	 0.876500 	 0.739688 	 0.744938 	  
 18.723547 	 7.929904 	 6.379053 	 0.879188 	 0.742000 	 0.744500 	  
 12.930746 	 6.018358 	 7.094311 	 0.876750 	 0.740000 	 0.744062 	  
 8.599900 	 5.766839 	 4.885658 	 0.879250 	 0.741625 	 0.744750 	  
 10.541314 	 8.470670 	 3.266503 	 0.876938 	 0.740000 	 0.743750 	  
 17.701751 	 9.715690 	 4.398339 	 0.879437 	 0.742000 	 0.744688 	  
 20.429162 	 7.816720 	 5.129317 	 0.876688 	 0.739500 	 0.744313 	  
 15.846797 	 4.219996 	 2.708445 	 0.879188 	 0.741812 	 0.744563 	  
 9.904656 	 3.025280 	 2.103227 	 0.876750 	 0.739938 	 0.744250 	  
 5.573810 	 5.427288 	 5.325816 	 0.879437 	 0.741625 	 0.744812 	  
 3.805316 	 8.822797 	 0.028194 	 0.877000 	 0.739750 	 0.743812 	  
 6.831406 	 11.073894 	 -0.867844 	 0.879313 	 0.741875 	 0.744625 	  
 10.525594 	 11.124198 	 -1.724581 	 0.876625 	 0.739500 	 0.744688 	  
 12.278368 	 10.998438 	 3.352963 	 0.879250 	 0.741375 	 0.744375 	  
 8.874999 	 12.054819 	 1.867428 	 0.876625 	 0.739187 	 0.743938 	  
 3.058618 	 12.381794 	 3.447282 	 0.879375 	 0.741250 	 0.744437 	  
 -2.026785 	 10.218729 	 1.356529 	 0.876375 	 0.739000 	 0.745500 	  
 -2.113245 	 5.037433 	 0.405472 	 0.879437 	 0.740938 	 0.743938 	  
 4.009675 	 2.497090 	 0.617692 	 0.876688 	 0.739187 	 0.745625 	  
 9.480217 	 2.798913 	 0.201113 	 0.879500 	 0.740000 	 0.743812 	  
 11.107232 	 3.729534 	 5.522316 	 0.876437 	 0.739563 	 0.745750 	  
 5.809609 	 2.773761 	 1.898867 	 0.879563 	 0.739437 	 0.743750 	  
 -1.453007 	 2.886944 	 2.126807 	 0.876250 	 0.740875 	 0.745812 	  
 -6.035372 	 3.603774 	 3.863861 	 0.878563 	 0.739187 	 0.743688 	  
 -3.889599 	 4.584699 	 3.635922 	 0.878000 	 0.741313 	 0.745688 	  
 3.302277 	 4.219996 	 4.869938 	 0.876938 	 0.739375 	 0.743938 	  
 10.109015 	 2.471938 	 2.810625 	 0.879375 	 0.742000 	 0.744375 	  
 12.946466 	 1.566469 	 1.348669 	 0.876688 	 0.739875 	 0.745563 	  
 13.300165 	 3.289375 	 0.845631 	 0.879375 	 0.741500 	 0.744125 	  
 10.682793 	 7.150195 	 3.305803 	 0.876500 	 0.739812 	 0.745750 	  
 8.835699 	 8.432942 	 2.724165 	 0.879563 	 0.741250 	 0.744125 	  
 10.950033 	 7.502321 	 3.282223 	 0.876437 	 0.739563 	 0.745750 	  
 16.114036 	 5.842295 	 2.810625 	 0.879375 	 0.741563 	 0.744000 	  
 17.395212 	 5.477592 	 2.944244 	 0.876688 	 0.739563 	 0.745688 	  
 14.259082 	 4.785914 	 3.918881 	 0.879250 	 0.741875 	 0.744125 	  
 9.401618 	 4.697883 	 3.384403 	 0.876812 	 0.739688 	 0.745000 	  
 5.770309 	 4.961978 	 4.917098 	 0.879625 	 0.741688 	 0.744313 	  
 5.448050 	 5.666231 	 7.408710 	 0.876625 	 0.739688 	 0.744812 	  
 10.588474 	 4.546971 	 4.288300 	 0.879688 	 0.741688 	 0.744563 	  
 15.202279 	 4.056509 	 3.030704 	 0.877000 	 0.739437 	 0.743938 	  
 16.114036 	 4.496667 	 4.138960 	 0.880000 	 0.741500 	 0.744437 	  
 12.970046 	 6.005782 	 6.300453 	 0.877188 	 0.739938 	 0.745375 	  
 7.413044 	 6.911251 	 6.795632 	 0.880313 	 0.741625 	 0.744250 	  
 2.720639 	 8.571278 	 4.744178 	 0.877563 	 0.739563 	 0.744125 	  
 4.654193 	 9.225228 	 7.055011 	 0.880188 	 0.741625 	 0.744812 	  
 11.908949 	 10.998438 	 5.207917 	 0.877875 	 0.739437 	 0.743625 	  
 16.742834 	 12.532705 	 6.913531 	 0.880000 	 0.741375 	 0.744812 	  
 15.092239 	 13.211807 	 4.759898 	 0.877250 	 0.739250 	 0.744437 	  
 13.040786 	 13.702269 	 5.632355 	 0.880313 	 0.741500 	 0.744563 	  
 9.252278 	 13.978940 	 4.822778 	 0.877500 	 0.739250 	 0.743688 	  
 3.938935 	 11.702692 	 1.867428 	 0.879938 	 0.741500 	 0.744500 	  
 2.492700 	 9.728266 	 1.914587 	 0.877500 	 0.739437 	 0.744563 	  
 8.717800 	 9.715690 	 1.835988 	 0.880062 	 0.741187 	 0.744437 	  
 13.881803 	 10.105545 	 3.447282 	 0.877375 	 0.739313 	 0.744062 	  
 13.080086 	 8.231727 	 -1.308002 	 0.880125 	 0.741437 	 0.744500 	  
 7.318724 	 5.729111 	 -2.730658 	 0.877375 	 0.739437 	 0.744812 	  
 1.746002 	 4.924250 	 -4.672071 	 0.880188 	 0.741125 	 0.743938 	  
 -1.107168 	 5.553048 	 -0.506285 	 0.877625 	 0.739938 	 0.745750 	  
 3.577376 	 6.760340 	 -1.315862 	 0.880563 	 0.740063 	 0.743750 	  
 11.476651 	 9.439019 	 -0.938583 	 0.877500 	 0.742125 	 0.745875 	  
 15.390918 	 11.589508 	 -0.317645 	 0.879375 	 0.740063 	 0.743688 	  
 13.410205 	 10.897830 	 3.077864 	 0.879250 	 0.741938 	 0.745750 	  
 5.793889 	 8.269455 	 2.920664 	 0.878563 	 0.739750 	 0.743812 	  
 0.331207 	 7.414290 	 1.843848 	 0.880688 	 0.741563 	 0.744938 	  
 1.620243 	 8.030512 	 -0.663484 	 0.878062 	 0.739563 	 0.744188 	  
 8.261921 	 6.471093 	 -2.180459 	 0.880625 	 0.741750 	 0.744625 	  
 13.221565 	 3.918173 	 1.969607 	 0.877875 	 0.739750 	 0.744750 	  
 14.447721 	 3.880445 	 2.779185 	 0.880625 	 0.741437 	 0.744500 	  
 12.050429 	 6.810644 	 8.218287 	 0.877812 	 0.739688 	 0.744188 	  
 6.108288 	 8.847949 	 8.682025 	 0.880500 	 0.741688 	 0.744563 	  
 0.260467 	 10.067817 	 7.636649 	 0.877938 	 0.739688 	 0.743812 	  
 2.123281 	 10.231305 	 6.261153 	 0.880437 	 0.741563 	 0.744688 	  
 11.382331 	 9.841450 	 9.067164 	 0.877563 	 0.739875 	 0.744688 	  
 20.146203 	 8.508398 	 7.392990 	 0.880563 	 0.741500 	 0.744563 	  
 20.672821 	 8.105968 	 6.811352 	 0.877750 	 0.739875 	 0.744125 	  
 15.241579 	 8.168847 	 5.467296 	 0.880375 	 0.741812 	 0.744875 	  
 6.564167 	 8.118543 	 1.576609 	 0.878375 	 0.739750 	 0.743750 	  
 1.565223 	 6.471093 	 0.908511 	 0.881062 	 0.741563 	 0.744625 	  
 2.744219 	 5.414712 	 1.474429 	 0.878062 	 0.740000 	 0.745000 	  
 7.436624 	 4.094236 	 2.236846 	 0.881375 	 0.741688 	 0.744313 	  
 9.401618 	 3.352255 	 5.066437 	 0.878375 	 0.739750 	 0.744500 	  
 8.890719 	 3.691806 	 4.052500 	 0.881000 	 0.741750 	 0.744375 	  
 5.841049 	 4.999706 	 5.325816 	 0.878375 	 0.739688 	 0.744437 	  
 1.423743 	 4.169692 	 2.732025 	 0.881000 	 0.741500 	 0.744313 	  
 0.362647 	 2.409058 	 5.624495 	 0.878313 	 0.739688 	 0.744563 	  
 5.762449 	 2.270722 	 3.769541 	 0.881188 	 0.741625 	 0.744437 	  
 10.478434 	 2.144963 	 4.783478 	 0.878062 	 0.739750 	 0.744313 	  
 12.867866 	 1.604197 	 5.231497 	 0.880750 	 0.741563 	 0.744500 	  
 12.592767 	 2.207843 	 4.335460 	 0.878062 	 0.739688 	 0.744500 	  
 10.902873 	 2.144963 	 2.637705 	 0.880750 	 0.741437 	 0.744188 	  
 5.691710 	 1.013126 	 2.771325 	 0.877875 	 0.739750 	 0.745812 	  
 3.412317 	 -0.231894 	 4.469079 	 0.881188 	 0.740812 	 0.743812 	  
 8.191181 	 1.151462 	 3.258643 	 0.878062 	 0.741125 	 0.745750 	  
 13.999703 	 2.962400 	 5.734535 	 0.880875 	 0.740000 	 0.743812 	  
 16.074736 	 4.823642 	 8.108247 	 0.877875 	 0.742188 	 0.745812 	  
 14.211922 	 5.703959 	 4.414059 	 0.879625 	 0.740063 	 0.743750 	  
 11.146532 	 6.898675 	 3.714522 	 0.878563 	 0.742000 	 0.745938 	  
 9.315158 	 8.810221 	 3.659502 	 0.879062 	 0.739938 	 0.743750 	  
 12.262648 	 9.703114 	 3.368683 	 0.880625 	 0.741750 	 0.745062 	  
 17.796070 	 8.432942 	 4.068220 	 0.878250 	 0.740125 	 0.743750 	  
 20.963640 	 7.678385 	 2.684865 	 0.881000 	 0.742063 	 0.744500 	  
 19.030086 	 9.262956 	 4.280440 	 0.878000 	 0.740063 	 0.744250 	  
 15.689597 	 10.583431 	 4.783478 	 0.880563 	 0.742063 	 0.744688 	  
 8.874999 	 9.879178 	 2.244706 	 0.878250 	 0.739938 	 0.743688 	  
 2.500560 	 8.759917 	 3.321523 	 0.880688 	 0.741812 	 0.744688 	  
 2.516280 	 8.998861 	 1.442989 	 0.877750 	 0.740063 	 0.744750 	  
 8.969319 	 8.986285 	 0.381892 	 0.880688 	 0.742000 	 0.744313 	  
 14.408421 	 9.200076 	 -0.364805 	 0.877938 	 0.740250 	 0.744750 	  
 15.642437 	 9.979785 	 2.142527 	 0.880875 	 0.742063 	 0.744625 	  
 12.411988 	 10.269032 	 1.757388 	 0.878313 	 0.740250 	 0.744062 	  
 7.208685 	 8.935981 	 1.411549 	 0.881250 	 0.741812 	 0.744688 	  
 3.986095 	 7.464594 	 -2.023260 	 0.878313 	 0.739750 	 0.744125 	  
 7.216545 	 7.263378 	 0.484072 	 0.881375 	 0.741688 	 0.744688 	  
 12.018989 	 7.955056 	 1.733808 	 0.878437 	 0.739875 	 0.744000 	  
 14.416281 	 7.590353 	 3.093584 	 0.880938 	 0.741688 	 0.744688 	  
 10.431274 	 7.426866 	 2.991404 	 0.878437 	 0.739812 	 0.743688 	  
 4.772093 	 9.112044 	 5.687375 	 0.881062 	 0.741250 	 0.744563 	  
 0.574866 	 8.986285 	 4.846358 	 0.878188 	 0.739437 	 0.745125 	  
 1.793162 	 6.219574 	 5.600915 	 0.881062 	 0.741437 	 0.744188 	  
 7.310864 	 4.408635 	 5.813135 	 0.878375 	 0.739563 	 0.744875 	  
 9.771036 	 3.930749 	 8.218287 	 0.880938 	 0.741187 	 0.744437 	  
 7.365884 	 5.125465 	 6.253293 	 0.878188 	 0.739750 	 0.744250 	  
 2.932859 	 7.225650 	 2.779185 	 0.881062 	 0.741750 	 0.744375 	  
 -2.152545 	 8.017936 	 1.309369 	 0.878062 	 0.740063 	 0.745500 	  
 -4.211858 	 5.565624 	 2.621985 	 0.881000 	 0.741812 	 0.743875 	  
 -0.989269 	 4.358332 	 5.490876 	 0.878500 	 0.741125 	 0.745750 	  
 6.179028 	 5.326680 	 4.720598 	 0.881188 	 0.740313 	 0.743812 	  
 10.824273 	 8.407791 	 6.213993 	 0.878437 	 0.742563 	 0.745875 	  
 8.804259 	 11.514052 	 4.005341 	 0.880750 	 0.740125 	 0.743688 	  
 6.336227 	 12.884832 	 1.482289 	 0.878625 	 0.742250 	 0.745938 	  
 2.649899 	 12.532705 	 1.356529 	 0.879250 	 0.740437 	 0.743750 	  
 2.390520 	 12.406946 	 1.600188 	 0.880250 	 0.741688 	 0.745563 	  
 8.505580 	 11.866179 	 1.953887 	 0.879000 	 0.739500 	 0.743625 	  
 17.088673 	 11.627236 	 5.365116 	 0.881250 	 0.742000 	 0.744688 	  
 20.649241 	 11.413445 	 2.401906 	 0.878500 	 0.739812 	 0.744563 	  
 19.037946 	 10.507976 	 0.106793 	 0.881250 	 0.741812 	 0.744563 	  
 14.636361 	 10.155849 	 -0.168306 	 0.878437 	 0.739563 	 0.744062 	  
 8.426981 	 9.916906 	 3.793121 	 0.881313 	 0.741250 	 0.744625 	  
 4.402674 	 9.992361 	 5.679515 	 0.878688 	 0.739437 	 0.743750 	  
 6.737086 	 8.860525 	 2.700585 	 0.881188 	 0.741625 	 0.744563 	  
 10.541314 	 8.206575 	 0.028194 	 0.878375 	 0.739625 	 0.745313 	  
 14.180482 	 7.590353 	 4.186120 	 0.881188 	 0.741625 	 0.744125 	  
 12.435568 	 6.986707 	 4.021061 	 0.878125 	 0.739688 	 0.744812 	  
 6.422687 	 6.118966 	 4.657719 	 0.881125 	 0.741500 	 0.744688 	  
 3.876055 	 5.854871 	 3.030704 	 0.878500 	 0.739688 	 0.743875 	  
 8.953599 	 5.703959 	 3.125023 	 0.880938 	 0.741750 	 0.744437 	  
 16.255515 	 6.760340 	 2.842064 	 0.878188 	 0.739812 	 0.745688 	  
 18.739267 	 7.841872 	 1.961747 	 0.881125 	 0.741313 	 0.744188 	  
 17.065093 	 7.275954 	 3.085724 	 0.878062 	 0.739750 	 0.745000 	  
 12.160469 	 5.678807 	 6.764192 	 0.880750 	 0.741750 	 0.744313 	  
 6.100428 	 5.376984 	 3.628062 	 0.877875 	 0.740063 	 0.744250 	  
 2.154721 	 5.364408 	 4.335460 	 0.880812 	 0.741812 	 0.744625 	  
 4.001815 	 5.477592 	 3.447282 	 0.878000 	 0.739938 	 0.744500 	  
 10.478434 	 5.087737 	 4.256860 	 0.880750 	 0.741812 	 0.744437 	  
 13.716744 	 4.270300 	 3.211483 	 0.877625 	 0.739875 	 0.744875 	  
 11.390191 	 2.522242 	 2.889224 	 0.880938 	 0.741563 	 0.744125 	  
 5.778169 	 3.113312 	 4.476939 	 0.878062 	 0.739688 	 0.745437 	  
 0.079688 	 4.899098 	 2.535525 	 0.880875 	 0.741500 	 0.743938 	  
 -1.759546 	 5.502744 	 6.119674 	 0.878188 	 0.740437 	 0.745750 	  
 3.317997 	 4.282876 	 4.909238 	 0.881250 	 0.740500 	 0.743688 	  
 8.599900 	 3.893021 	 5.608775 	 0.878125 	 0.742063 	 0.745938 	  
 9.794616 	 3.151040 	 4.304020 	 0.879625 	 0.740375 	 0.743750 	  
 10.219055 	 2.610273 	 3.140743 	 0.878500 	 0.742375 	 0.745750 	  
 6.642766 	 2.836641 	 6.190414 	 0.879062 	 0.740125 	 0.743812 	  
 2.060401 	 3.943325 	 3.297943 	 0.880625 	 0.742250 	 0.745062 	  
 1.620243 	 4.723034 	 4.767758 	 0.878500 	 0.740375 	 0.743875 	  
 10.187615 	 4.521819 	 -1.583101 	 0.880938 	 0.742188 	 0.744563 	  
 17.332332 	 5.339256 	 1.647348 	 0.878125 	 0.740063 	 0.744812 	  
 18.872887 	 5.766839 	 3.903161 	 0.881062 	 0.741938 	 0.744375 	  
 14.997919 	 6.005782 	 4.028921 	 0.878062 	 0.740187 	 0.744625 	  
 9.425197 	 5.553048 	 2.260426 	 0.880750 	 0.742063 	 0.744563 	  
 4.756373 	 5.968054 	 1.097150 	 0.878437 	 0.740187 	 0.744062 	  
 4.937152 	 5.590776 	 3.313663 	 0.880750 	 0.742125 	 0.744625 	  
 8.702080 	 4.345756 	 4.083940 	 0.878313 	 0.740563 	 0.744375 	  
 11.806770 	 3.125888 	 3.305803 	 0.880938 	 0.742063 	 0.744500 	  
 11.948249 	 4.245148 	 6.324033 	 0.878313 	 0.739875 	 0.744000 	  
 10.132595 	 5.741687 	 5.042857 	 0.880812 	 0.742125 	 0.744938 	  
 4.740653 	 6.798068 	 4.924958 	 0.878500 	 0.740063 	 0.743875 	  
 0.677046 	 7.527473 	 6.968551 	 0.881062 	 0.741938 	 0.744500 	  
 3.789596 	 8.470670 	 5.349396 	 0.878000 	 0.740125 	 0.745437 	  
 11.822490 	 7.414290 	 3.164323 	 0.881000 	 0.742125 	 0.744188 	  
 15.013639 	 5.779415 	 3.918881 	 0.878000 	 0.739812 	 0.745062 	  
 12.529887 	 5.087737 	 6.874231 	 0.880875 	 0.741812 	 0.744375 	  
 7.012185 	 6.584276 	 7.503029 	 0.878313 	 0.740000 	 0.744062 	  
 2.453400 	 6.848372 	 6.803492 	 0.880938 	 0.741625 	 0.744563 	  
 1.808882 	 6.986707 	 5.742395 	 0.878250 	 0.740000 	 0.743938 	  
 8.434841 	 7.841872 	 5.255077 	 0.881062 	 0.741875 	 0.744375 	  
 14.746400 	 10.331912 	 6.151114 	 0.878000 	 0.739688 	 0.744875 	  
 16.452015 	 11.136774 	 5.813135 	 0.880938 	 0.741563 	 0.744375 	  
 14.384841 	 10.784647 	 4.131100 	 0.878125 	 0.740187 	 0.745062 	  
 9.716017 	 10.784647 	 1.851708 	 0.881125 	 0.742000 	 0.744000 	  
 4.732793 	 10.231305 	 2.166107 	 0.878188 	 0.740125 	 0.745750 	  
 5.927509 	 6.936403 	 2.048207 	 0.881125 	 0.740875 	 0.743750 	  
 14.164762 	 5.376984 	 -2.384819 	 0.878000 	 0.741625 	 0.745750 	  
 19.171566 	 5.703959 	 -3.713154 	 0.880938 	 0.740125 	 0.743812 	  
 17.646731 	 7.552625 	 -0.144726 	 0.878375 	 0.742000 	 0.745875 	  
 12.671367 	 8.483246 	 0.169673 	 0.879625 	 0.740000 	 0.743688 	  
 8.458421 	 8.156271 	 0.837771 	 0.879625 	 0.742250 	 0.745812 	  
 4.371234 	 7.816720 	 2.103227 	 0.879000 	 0.740063 	 0.743750 	  
 6.509147 	 7.816720 	 1.694508 	 0.880938 	 0.742000 	 0.745000 	  
 13.716744 	 7.313682 	 -1.308002 	 0.878437 	 0.739812 	 0.744250 	  
 18.361989 	 7.426866 	 2.056067 	 0.881313 	 0.741812 	 0.744688 	  
 17.120113 	 7.678385 	 2.040347 	 0.878938 	 0.739812 	 0.743563 	  
 11.743890 	 7.062163 	 2.480506 	 0.881125 	 0.741563 	 0.744688 	  
 7.114365 	 6.672308 	 1.002830 	 0.878500 	 0.739875 	 0.744812 	  
 4.292634 	 6.219574 	 -0.451265 	 0.881313 	 0.741625 	 0.744375 	  
 6.116148 	 6.760340 	 3.903161 	 0.878313 	 0.739812 	 0.744375 	  
 11.641710 	 6.018358 	 1.285789 	 0.881313 	 0.741875 	 0.744688 	  
 14.282662 	 5.452440 	 4.256860 	 0.878625 	 0.739938 	 0.744062 	  
 11.398051 	 5.968054 	 1.356529 	 0.881188 	 0.741500 	 0.744437 	  
 4.677773 	 7.112467 	 5.003557 	 0.878062 	 0.739875 	 0.744500 	  
 -0.391911 	 8.181423 	 2.590545 	 0.881000 	 0.741625 	 0.744437 	  
 1.973942 	 8.797645 	 7.448009 	 0.878125 	 0.739750 	 0.744125 	  
 10.454854 	 8.860525 	 3.463002 	 0.881062 	 0.741563 	 0.744688 	  
 15.642437 	 8.747341 	 7.880308 	 0.878625 	 0.739625 	 0.743750 	  
 15.485238 	 9.250380 	 7.416570 	 0.880938 	 0.741313 	 0.744688 	  
 10.690653 	 9.954634 	 6.229713 	 0.878062 	 0.739563 	 0.744563 	  
 3.396597 	 9.200076 	 5.797415 	 0.881000 	 0.741187 	 0.744188 	  
 -3.787420 	 8.709614 	 6.614852 	 0.878188 	 0.739250 	 0.744188 	  
 -2.246865 	 8.520974 	 5.058577 	 0.880875 	 0.741250 	 0.744688 	  
 6.328368 	 8.873101 	 2.496226 	 0.878437 	 0.739437 	 0.743750 	  
 13.551684 	 8.256879 	 1.191470 	 0.880812 	 0.741313 	 0.744125 	  
 12.364828 	 7.590353 	 2.087507 	 0.877875 	 0.739500 	 0.745750 	  
 8.175462 	 5.439864 	 -1.080063 	 0.881250 	 0.740812 	 0.743625 	  
 2.854259 	 3.100736 	 1.576609 	 0.878062 	 0.740500 	 0.745750 	  
 -0.619850 	 2.522242 	 3.926741 	 0.880875 	 0.739938 	 0.743812 	  
 3.035038 	 5.376984 	 3.439422 	 0.878500 	 0.742063 	 0.745750 	  
 11.107232 	 6.848372 	 2.897084 	 0.879062 	 0.739938 	 0.743688 	  
 15.666017 	 6.420789 	 5.868155 	 0.880688 	 0.742000 	 0.745000 	  
 11.343031 	 5.062585 	 7.015711 	 0.878563 	 0.739938 	 0.743812 	  
 5.903929 	 3.968477 	 7.785988 	 0.881125 	 0.741812 	 0.744437 	  
 1.761722 	 4.358332 	 5.868155 	 0.878125 	 0.739875 	 0.745125 	  
 1.525923 	 4.999706 	 6.937111 	 0.881188 	 0.741750 	 0.744437 	  
 7.263704 	 5.175769 	 7.809568 	 0.878500 	 0.739750 	 0.744125 	  
 15.493098 	 4.773338 	 6.190414 	 0.880938 	 0.741688 	 0.744750 	  
 17.245872 	 3.905597 	 2.747745 	 0.878313 	 0.739938 	 0.743750 	  
 12.011129 	 3.264223 	 -1.418042 	 0.880750 	 0.741688 	 0.744563 	  
 6.815686 	 2.660577 	 -8.507739 	 0.878125 	 0.739625 	 0.745000 	  
 5.809609 	 2.798913 	 -2.345519 	 0.881125 	 0.741688 	 0.744188 	  
 9.079359 	 4.094236 	 4.036781 	 0.878062 	 0.739625 	 0.745563 	  
 16.035436 	 4.471515 	 2.928524 	 0.880875 	 0.741625 	 0.744250 	  
 20.421302 	 4.773338 	 1.513729 	 0.878188 	 0.739750 	 0.745125 	  
 19.823944 	 4.760762 	 1.820268 	 0.881062 	 0.741437 	 0.744313 	  
 15.956836 	 5.653655 	 2.189687 	 0.878125 	 0.739563 	 0.744563 	  
 11.453071 	 6.496245 	 6.182554 	 0.880938 	 0.741563 	 0.744500 	  
 6.304788 	 8.646734 	 9.554483 	 0.878437 	 0.739500 	 0.744062 	  
 6.383387 	 9.212652 	 6.135394 	 0.880688 	 0.741250 	 0.744625 	  
 9.755316 	 9.112044 	 2.842064 	 0.878000 	 0.739500 	 0.743938 	  
 12.325528 	 8.634158 	 1.270069 	 0.880812 	 0.741187 	 0.744188 	  
 12.042569 	 9.036588 	 1.505869 	 0.877750 	 0.739250 	 0.745563 	  
 9.087219 	 8.797645 	 2.008907 	 0.880750 	 0.741125 	 0.743938 	  
 2.162581 	 9.338412 	 9.916042 	 0.877875 	 0.739187 	 0.745563 	  
 -2.050365 	 10.520552 	 7.935328 	 0.880688 	 0.740125 	 0.743875 	  
 1.777442 	 12.985440 	 7.495169 	 0.877812 	 0.739063 	 0.745625 	  
 8.827839 	 14.255612 	 2.700585 	 0.881000 	 0.739875 	 0.743563 	  
 13.496664 	 13.337567 	 3.313663 	 0.877750 	 0.741000 	 0.745750 	  
 13.512384 	 12.054819 	 1.301509 	 0.880563 	 0.739812 	 0.743812 	  
 10.470574 	 12.117699 	 2.959964 	 0.878313 	 0.741938 	 0.745688 	  
 5.243691 	 11.187078 	 1.490149 	 0.878625 	 0.739563 	 0.743688 	  
 3.946795 	 8.797645 	 4.201840 	 0.880938 	 0.741875 	 0.744563 	  
 9.495937 	 6.948979 	 3.211483 	 0.878125 	 0.739750 	 0.745125 	  
 15.705317 	 5.942903 	 3.573042 	 0.880938 	 0.741437 	 0.744250 	  
 17.458091 	 6.596852 	 6.842791 	 0.877750 	 0.739625 	 0.745375 	  
 16.632794 	 7.313682 	 4.068220 	 0.880625 	 0.741500 	 0.744313 	  
 12.066149 	 7.452018 	 1.843848 	 0.877750 	 0.739563 	 0.745188 	  
 4.952872 	 7.426866 	 2.103227 	 0.880625 	 0.741625 	 0.744313 	  
 2.083981 	 7.037011 	 -2.659918 	 0.877812 	 0.739563 	 0.745062 	  
 5.699570 	 5.087737 	 -3.147236 	 0.880500 	 0.741500 	 0.744188 	  
 7.735303 	 3.138464 	 1.089290 	 0.877563 	 0.739750 	 0.745437 	  
 5.958949 	 3.188767 	 4.193980 	 0.880625 	 0.741750 	 0.744250 	  
 3.483057 	 4.433787 	 2.598405 	 0.877625 	 0.739437 	 0.745125 	  
 2.744219 	 4.559547 	 2.040347 	 0.880313 	 0.741938 	 0.744313 	  
 0.897125 	 3.830141 	 3.305803 	 0.877625 	 0.739875 	 0.745375 	  
 3.459477 	 3.402559 	 6.158974 	 0.880437 	 0.741437 	 0.744125 	  
 10.525594 	 3.905597 	 7.204350 	 0.877563 	 0.739750 	 0.745812 	  
 16.782134 	 4.282876 	 7.337970 	 0.880563 	 0.741313 	 0.744062 	  
 15.744617 	 5.276377 	 8.068947 	 0.877500 	 0.739437 	 0.745062 	  
 10.832133 	 6.672308 	 6.111814 	 0.880250 	 0.741625 	 0.744437 	  
 4.536293 	 8.307183 	 6.418353 	 0.877625 	 0.739500 	 0.744500 	  
 0.834245 	 8.722190 	 3.573042 	 0.880375 	 0.741437 	 0.744437 	  
 2.712779 	 7.414290 	 3.439422 	 0.877500 	 0.739313 	 0.743938 	  
 7.766743 	 6.546549 	 4.767758 	 0.880250 	 0.741063 	 0.744188 	  
 10.965752 	 7.049587 	 3.132883 	 0.877500 	 0.739500 	 0.745563 	  
 10.494154 	 7.565201 	 6.048934 	 0.880188 	 0.741437 	 0.744000 	  
 6.799966 	 8.370063 	 5.270797 	 0.877437 	 0.739563 	 0.745188 	  
 2.752079 	 9.074316 	 2.787045 	 0.880250 	 0.740938 	 0.744375 	  
 2.704919 	 11.249957 	 3.832421 	 0.877313 	 0.739500 	 0.744188 	  
 8.010402 	 12.256034 	 2.409766 	 0.880375 	 0.741187 	 0.744313 	  
 11.791050 	 10.218729 	 3.463002 	 0.877625 	 0.739000 	 0.744437 	  
 12.301948 	 7.665809 	 4.563399 	 0.880250 	 0.740938 	 0.744062 	  
 8.466281 	 8.357487 	 2.724165 	 0.877437 	 0.739688 	 0.745625 	  
 4.614893 	 8.847949 	 3.101444 	 0.880375 	 0.740437 	 0.743688 	  
 2.917139 	 7.967632 	 4.728458 	 0.877188 	 0.741250 	 0.745750 	  
 5.275131 	 7.376562 	 2.952104 	 0.879938 	 0.739625 	 0.743688 	  
 12.396268 	 8.483246 	 1.592328 	 0.877375 	 0.741750 	 0.745625 	  
 16.011856 	 8.898253 	 -2.447698 	 0.878062 	 0.739375 	 0.743750 	  
 14.675660 	 10.105545 	 1.694508 	 0.879875 	 0.741688 	 0.744938 	  
 10.863573 	 10.482824 	 1.419409 	 0.877500 	 0.739187 	 0.743875 	  
 8.922159 	 9.765994 	 1.199330 	 0.880250 	 0.741437 	 0.744500 	  
 6.391247 	 8.005360 	 3.518022 	 0.877250 	 0.739500 	 0.745375 	  
 9.040059 	 5.351832 	 -0.270486 	 0.880313 	 0.741375 	 0.744125 	  
 15.854657 	 3.880445 	 1.898867 	 0.877250 	 0.739563 	 0.745250 	  
 21.828237 	 3.327103 	 2.346886 	 0.880000 	 0.741437 	 0.744313 	  
 20.554921 	 3.113312 	 4.799198 	 0.877375 	 0.739563 	 0.744750 	  
 13.771763 	 3.251647 	 1.883148 	 0.880188 	 0.741375 	 0.744437 	  
 5.086492 	 4.069085 	 5.215777 	 0.877875 	 0.739500 	 0.744625 	  
 2.555580 	 4.106812 	 3.926741 	 0.880750 	 0.741250 	 0.744313 	  
 7.601683 	 3.289375 	 2.394046 	 0.877938 	 0.739250 	 0.744313 	  
 13.488804 	 3.251647 	 2.810625 	 0.880750 	 0.741375 	 0.744500 	  
 14.793560 	 4.710458 	 3.502302 	 0.878000 	 0.739563 	 0.744188 	  
 10.690653 	 3.830141 	 1.183610 	 0.880625 	 0.741563 	 0.744750 	  
 5.039332 	 2.471938 	 -0.199746 	 0.877750 	 0.739875 	 0.744313 	  
 1.101484 	 2.924672 	 2.724165 	 0.880750 	 0.741313 	 0.744188 	  
 0.472686 	 5.213497 	 6.048934 	 0.877750 	 0.739375 	 0.744750 	  
 7.798183 	 7.037011 	 5.034997 	 0.880437 	 0.741375 	 0.744250 	  
 13.441644 	 7.665809 	 0.939951 	 0.877812 	 0.739500 	 0.744250 	  
 13.095806 	 5.729111 	 4.626279 	 0.880563 	 0.741313 	 0.744437 	  
 6.116148 	 4.873946 	 3.628062 	 0.877437 	 0.739625 	 0.744500 	  
 -0.533390 	 5.892599 	 7.487309 	 0.880625 	 0.741375 	 0.744500 	  
 -3.787420 	 6.559125 	 5.703095 	 0.877812 	 0.739688 	 0.743938 	  
 -2.427644 	 4.785914 	 3.981761 	 0.880313 	 0.741375 	 0.744125 	  
 3.789596 	 5.012282 	 0.201113 	 0.877500 	 0.739563 	 0.745563 	  
 10.124735 	 5.993206 	 -0.207606 	 0.880500 	 0.740500 	 0.743625 	  
 12.687087 	 7.338834 	 -3.115796 	 0.877437 	 0.740875 	 0.745750 	  
 10.525594 	 6.584276 	 0.782751 	 0.880625 	 0.739875 	 0.743688 	  
 8.702080 	 5.389560 	 3.518022 	 0.878000 	 0.742000 	 0.745812 	  
 8.065422 	 5.477592 	 4.500519 	 0.878062 	 0.739938 	 0.743750 	  
 13.598844 	 6.697460 	 6.080374 	 0.880563 	 0.741750 	 0.744500 	  
 22.040457 	 6.584276 	 5.679515 	 0.877750 	 0.739688 	 0.745125 	  
 24.822888 	 5.615928 	 7.015711 	 0.880500 	 0.741750 	 0.744188 	  
 20.523482 	 5.666231 	 8.226147 	 0.877688 	 0.739688 	 0.745000 	  
 15.996136 	 6.219574 	 5.451576 	 0.880437 	 0.741688 	 0.744250 	  
 11.311591 	 7.477170 	 7.974628 	 0.877500 	 0.739625 	 0.744750 	  
 6.941446 	 8.005360 	 6.693452 	 0.880375 	 0.741375 	 0.744500 	  
 8.206901 	 7.514897 	 8.147547 	 0.877875 	 0.739500 	 0.743750 	  
 15.013639 	 7.162771 	 4.964258 	 0.880250 	 0.741437 	 0.744500 	  
 17.418792 	 8.307183 	 7.628789 	 0.877500 	 0.739750 	 0.745188 	  
 14.337682 	 8.118543 	 7.636649 	 0.880437 	 0.741250 	 0.744188 	  
 8.969319 	 8.470670 	 7.542329 	 0.877688 	 0.739437 	 0.744313 	  
 4.599173 	 9.916906 	 3.958181 	 0.880437 	 0.741500 	 0.744500 	  
 3.907495 	 11.161926 	 2.614125 	 0.877750 	 0.739500 	 0.743875 	  
 8.882859 	 10.734343 	 0.240413 	 0.880375 	 0.741563 	 0.744375 	  
 12.341248 	 9.803722 	 -0.514145 	 0.877563 	 0.739688 	 0.745625 	  
 11.791050 	 8.043088 	 -2.714938 	 0.880500 	 0.741125 	 0.743750 	  
 6.092568 	 6.533973 	 1.089290 	 0.877500 	 0.739688 	 0.745688 	  
 -1.492307 	 5.050009 	 1.026410 	 0.880563 	 0.740500 	 0.743750 	  
 -5.335835 	 5.012282 	 0.374032 	 0.877688 	 0.740563 	 0.745563 	  
 -2.836363 	 6.798068 	 2.952104 	 0.880500 	 0.739563 	 0.743688 	  
 4.214034 	 9.288108 	 2.614125 	 0.877563 	 0.741688 	 0.745750 	  
 9.338738 	 10.772071 	 5.152897 	 0.880000 	 0.739375 	 0.743625 	  
 10.470574 	 11.187078 	 6.819212 	 0.877500 	 0.741750 	 0.745750 	  
 5.919649 	 10.596007 	 7.149330 	 0.879250 	 0.739750 	 0.743688 	  
 0.464826 	 9.891754 	 4.744178 	 0.877938 	 0.741625 	 0.745688 	  
 -3.677380 	 9.879178 	 5.027137 	 0.878375 	 0.739187 	 0.743500 	  
 -0.486230 	 8.734765 	 2.904944 	 0.879812 	 0.741437 	 0.745188 	  
 6.894286 	 6.018358 	 2.268286 	 0.877875 	 0.739500 	 0.743750 	  
 12.812847 	 4.182268 	 4.193980 	 0.880375 	 0.741688 	 0.744250 	  
 12.663507 	 3.528318 	 -1.811041 	 0.877563 	 0.739812 	 0.745750 	  
 10.226915 	 3.415135 	 1.136450 	 0.880688 	 0.740375 	 0.743688 	  
 7.593823 	 4.760762 	 0.704151 	 0.877625 	 0.741938 	 0.745750 	  
 5.793889 	 5.980630 	 3.565182 	 0.880250 	 0.739812 	 0.743625 	  
 10.415554 	 7.602929 	 -0.121146 	 0.877625 	 0.742000 	 0.745750 	  
 15.540258 	 7.829296 	 1.089290 	 0.878563 	 0.739938 	 0.743500 	  
 16.805714 	 4.899098 	 1.411549 	 0.879625 	 0.742375 	 0.745250 	  
 14.227642 	 2.270722 	 -1.897500 	 0.878062 	 0.739875 	 0.743500 	  
 10.439134 	 2.321026 	 1.034270 	 0.880500 	 0.741750 	 0.744500 	  
 7.562384 	 4.421211 	 3.203623 	 0.877375 	 0.740187 	 0.745313 	  
 9.833916 	 4.018781 	 -0.168306 	 0.880375 	 0.741875 	 0.744188 	  
 14.235502 	 2.635425 	 2.983544 	 0.877188 	 0.740063 	 0.744812 	  
 16.349835 	 2.559969 	 -0.718504 	 0.880125 	 0.741750 	 0.744437 	  
 16.734974 	 4.823642 	 1.191470 	 0.877250 	 0.739875 	 0.745188 	  
 14.793560 	 7.162771 	 3.093584 	 0.880313 	 0.741500 	 0.744000 	  
 8.937879 	 7.514897 	 4.610559 	 0.877188 	 0.739563 	 0.745437 	  
 2.972158 	 6.030934 	 5.789555 	 0.880437 	 0.741625 	 0.744062 	  
 3.373017 	 6.647156 	 4.885658 	 0.877500 	 0.739812 	 0.744875 	  
 9.747456 	 8.847949 	 6.512673 	 0.880500 	 0.741437 	 0.744500 	  
 14.526321 	 11.639812 	 5.200057 	 0.877563 	 0.739750 	 0.744375 	  
 16.444155 	 11.664964 	 2.598405 	 0.880062 	 0.741688 	 0.744375 	  
 13.056506 	 9.740842 	 4.272580 	 0.877313 	 0.739750 	 0.744625 	  
 6.524867 	 8.847949 	 6.473373 	 0.880188 	 0.741563 	 0.744375 	  
 1.384444 	 9.476747 	 10.764919 	 0.877250 	 0.739375 	 0.743938 	  
 4.889992 	 9.137196 	 7.330110 	 0.879938 	 0.741625 	 0.744313 	  
 11.995409 	 8.571278 	 7.982488 	 0.877125 	 0.739437 	 0.745437 	  
 14.848580 	 8.319759 	 2.897084 	 0.880000 	 0.741125 	 0.743938 	  
 11.515951 	 8.847949 	 2.472646 	 0.876875 	 0.739313 	 0.745688 	  
 7.696003 	 9.313260 	 0.853491 	 0.879938 	 0.740875 	 0.743625 	  
 5.055052 	 10.533128 	 3.651642 	 0.876938 	 0.739688 	 0.745563 	  
 6.084708 	 10.306760 	 5.372976 	 0.879625 	 0.740063 	 0.743688 	  
 10.124735 	 9.187500 	 1.773108 	 0.877250 	 0.741187 	 0.745625 	  
 11.649570 	 8.307183 	 3.761681 	 0.880125 	 0.739437 	 0.743500 	  
 11.177972 	 8.181423 	 1.670928 	 0.877125 	 0.741563 	 0.745688 	  
 9.826056 	 5.842295 	 3.101444 	 0.878188 	 0.739625 	 0.743563 	  
 8.269781 	 3.716958 	 2.001047 	 0.880750 	 0.741625 	 0.744500 	  
 4.567733 	 3.352255 	 2.205406 	 0.877938 	 0.739750 	 0.745375 	  
 5.204391 	 4.421211 	 1.875288 	 0.880938 	 0.741563 	 0.744000 	  
 10.281935 	 6.056086 	 3.816701 	 0.877875 	 0.739750 	 0.745625 	  
 15.068659 	 5.678807 	 3.368683 	 0.880750 	 0.740625 	 0.743750 	  
 14.219782 	 5.037433 	 -0.239046 	 0.877625 	 0.740375 	 0.745625 	  
 9.008619 	 5.678807 	 1.026410 	 0.880812 	 0.739750 	 0.743625 	  
 3.333717 	 7.250802 	 1.568749 	 0.877750 	 0.741812 	 0.745688 	  
 -0.674870 	 6.169270 	 4.225420 	 0.879625 	 0.739875 	 0.743563 	  
 2.854259 	 5.754263 	 2.747745 	 0.878313 	 0.742000 	 0.745688 	  
 10.234775 	 6.508821 	 5.027137 	 0.878625 	 0.739500 	 0.743500 	  
 14.070442 	 8.156271 	 7.259370 	 0.879875 	 0.741938 	 0.745188 	  
 13.197985 	 8.709614 	 6.166834 	 0.878188 	 0.739875 	 0.743500 	  
 10.627774 	 7.703537 	 3.824561 	 0.880500 	 0.741563 	 0.744625 	  
 6.438407 	 7.099891 	 3.745961 	 0.877500 	 0.739875 	 0.744750 	  
 4.520573 	 7.728689 	 6.709172 	 0.880437 	 0.741875 	 0.744125 	  
 8.214761 	 9.439019 	 3.950321 	 0.877875 	 0.739938 	 0.744500 	  
 13.221565 	 9.803722 	 3.793121 	 0.880437 	 0.741688 	 0.744563 	  
 13.394485 	 7.678385 	 5.891735 	 0.877625 	 0.739625 	 0.744000 	  
 12.388408 	 5.842295 	 5.679515 	 0.880250 	 0.741250 	 0.744625 	  
 8.733520 	 6.961555 	 6.984271 	 0.877500 	 0.739500 	 0.743750 	  
 1.966082 	 8.143695 	 8.289027 	 0.880125 	 0.741313 	 0.744188 	  
 -1.012849 	 9.011437 	 9.711682 	 0.877125 	 0.739375 	 0.745062 	  
 4.096135 	 8.797645 	 8.100387 	 0.879938 	 0.741250 	 0.744188 	  
 9.102939 	 8.156271 	 5.585196 	 0.877437 	 0.739437 	 0.744125 	  
 9.330878 	 7.565201 	 2.708445 	 0.880125 	 0.741000 	 0.744250 	  
 7.798183 	 8.118543 	 5.569476 	 0.877062 	 0.739063 	 0.743875 	  
 5.157231 	 8.055664 	 2.684865 	 0.879750 	 0.741313 	 0.744125 	  
 -0.525530 	 7.640657 	 3.942461 	 0.876750 	 0.739187 	 0.745000 	  
 -1.295808 	 8.156271 	 -2.400539 	 0.879812 	 0.741187 	 0.743938 	  
 6.564167 	 8.609006 	 -3.925374 	 0.877375 	 0.739625 	 0.745563 	  
 13.504524 	 6.986707 	 -4.923590 	 0.880437 	 0.739688 	 0.743688 	  
 13.315885 	 5.163193 	 -0.757804 	 0.877250 	 0.741688 	 0.745625 	  
 7.538804 	 4.484091 	 -2.486998 	 0.878750 	 0.739812 	 0.743500 	  
 3.042898 	 4.458939 	 0.043913 	 0.880188 	 0.741750 	 0.744750 	  
 2.115421 	 5.024857 	 1.678788 	 0.877563 	 0.739938 	 0.744125 	  
 6.792106 	 6.647156 	 1.686648 	 0.880500 	 0.741688 	 0.743938 	  
 15.155119 	 8.332335 	 2.378326 	 0.877500 	 0.740000 	 0.745437 	  
 18.849307 	 8.193999 	 4.995697 	 0.880563 	 0.740688 	 0.743750 	  
 18.063310 	 7.640657 	 3.911021 	 0.877500 	 0.740500 	 0.745625 	  
 14.156902 	 6.420789 	 7.841008 	 0.880437 	 0.740688 	 0.743500 	  
 8.159742 	 5.502744 	 6.630572 	 0.877250 	 0.740938 	 0.745563 	  
 3.207958 	 5.100313 	 4.170400 	 0.880000 	 0.740250 	 0.743563 	  
 7.381604 	 5.653655 	 4.759898 	 0.877375 	 0.742000 	 0.745500 	  
 14.832860 	 5.540472 	 5.931034 	 0.879625 	 0.740063 	 0.743563 	  
 17.929690 	 5.125465 	 5.396556 	 0.877188 	 0.741938 	 0.745688 	  
 15.398778 	 3.503166 	 4.414059 	 0.878750 	 0.739750 	 0.743563 	  
 10.258355 	 4.609851 	 5.938894 	 0.877938 	 0.741875 	 0.745750 	  
 5.251551 	 6.772916 	 4.807058 	 0.878062 	 0.739875 	 0.743500 	  
 7.114365 	 6.496245 	 2.197546 	 0.879125 	 0.742063 	 0.745250 	  
 13.960403 	 5.112889 	 2.339026 	 0.877688 	 0.740063 	 0.743563 	  
 18.629228 	 4.823642 	 5.938894 	 0.880062 	 0.741938 	 0.744500 	  
 16.876453 	 5.968054 	 11.700256 	 0.877688 	 0.740000 	 0.744000 	  
 16.302675 	 8.282031 	 6.756332 	 0.880062 	 0.741500 	 0.744625 	  
 12.671367 	 10.419944 	 4.987837 	 0.878062 	 0.739875 	 0.743563 	  
 5.275131 	 10.118121 	 5.490876 	 0.880062 	 0.741750 	 0.744625 	  
 2.571300 	 8.080816 	 2.126807 	 0.877750 	 0.739812 	 0.744125 	  
 11.492371 	 4.999706 	 0.067493 	 0.880250 	 0.741812 	 0.744313 	  
 18.841447 	 4.609851 	 -3.681714 	 0.877750 	 0.739938 	 0.743812 	  
 14.494881 	 4.785914 	 -5.866787 	 0.880375 	 0.741688 	 0.744000 	  
 4.787812 	 4.207420 	 -3.917514 	 0.877375 	 0.739750 	 0.745500 	  
 -2.474804 	 2.861792 	 -3.563815 	 0.880500 	 0.741313 	 0.743625 	  
 -4.023219 	 3.176191 	 -0.097566 	 0.877437 	 0.739875 	 0.745437 	  
 0.401947 	 4.157116 	 2.386186 	 0.880500 	 0.740125 	 0.743625 	  
 7.593823 	 6.056086 	 4.924958 	 0.877875 	 0.741812 	 0.745500 	  
 9.566677 	 5.854871 	 4.028921 	 0.879500 	 0.740063 	 0.743437 	  
 6.839266 	 4.672731 	 1.930307 	 0.879250 	 0.742500 	 0.745500 	  
 2.209741 	 3.742110 	 4.893518 	 0.878000 	 0.740187 	 0.743500 	  
 0.488406 	 3.616350 	 5.223637 	 0.880375 	 0.742313 	 0.744313 	  
 1.321564 	 4.873946 	 3.777401 	 0.877688 	 0.740125 	 0.745250 	  
 8.089002 	 6.710036 	 0.617692 	 0.880688 	 0.742000 	 0.743938 	  
 15.068659 	 7.929904 	 2.276146 	 0.877875 	 0.740125 	 0.745563 	  
 16.420575 	 7.263378 	 3.125023 	 0.880625 	 0.741000 	 0.743750 	  
 13.598844 	 6.898675 	 2.574825 	 0.877625 	 0.741063 	 0.745500 	  
 10.745673 	 7.125043 	 3.282223 	 0.880938 	 0.740500 	 0.743500 	  
 9.315158 	 9.275532 	 1.914587 	 0.877812 	 0.742188 	 0.745625 	  
 10.219055 	 9.489323 	 2.779185 	 0.880625 	 0.740375 	 0.743500 	  
 14.738540 	 8.206575 	 0.987110 	 0.877750 	 0.742375 	 0.745563 	  
 18.582068 	 7.640657 	 6.363333 	 0.879250 	 0.740187 	 0.743500 	  
 19.855384 	 9.791146 	 2.645565 	 0.877375 	 0.742375 	 0.745625 	  
 15.445938 	 11.388293 	 2.158247 	 0.878437 	 0.740563 	 0.743437 	  
 9.527377 	 11.929059 	 2.181827 	 0.879000 	 0.742563 	 0.745375 	  
 5.377311 	 11.300261 	 1.089290 	 0.877688 	 0.740688 	 0.743375 	  
 6.517007 	 12.067395 	 5.703095 	 0.880188 	 0.742500 	 0.744250 	  
 12.632067 	 12.243458 	 7.675949 	 0.877000 	 0.740313 	 0.744500 	  
 16.947193 	 10.545704 	 5.962474 	 0.880000 	 0.742375 	 0.744375 	  
 13.221565 	 10.407368 	 8.108247 	 0.877625 	 0.740250 	 0.743500 	  
 8.709940 	 9.866602 	 4.115380 	 0.879812 	 0.742188 	 0.744125 	  
 4.850692 	 9.728266 	 6.308313 	 0.876875 	 0.740250 	 0.745437 	  
 2.186161 	 9.791146 	 8.234007 	 0.879938 	 0.742000 	 0.743750 	  
 3.577376 	 10.218729 	 7.510889 	 0.876875 	 0.739812 	 0.745188 	  
 9.110798 	 10.306760 	 4.311880 	 0.879563 	 0.741563 	 0.743625 	  
 10.557034 	 8.810221 	 5.451576 	 0.877000 	 0.739938 	 0.745437 	  
 5.448050 	 6.609428 	 4.225420 	 0.879625 	 0.740938 	 0.743625 	  
 0.732066 	 7.213074 	 3.785261 	 0.876625 	 0.740688 	 0.745500 	  
 -2.789203 	 7.955056 	 1.403689 	 0.879563 	 0.740250 	 0.743375 	  
 -3.339401 	 6.181846 	 2.834204 	 0.876625 	 0.741625 	 0.745625 	  
 2.374800 	 2.912096 	 5.019277 	 0.878625 	 0.739938 	 0.743437 	  
 9.904656 	 3.553470 	 6.308313 	 0.877125 	 0.741938 	 0.745437 	  
 13.292305 	 6.144118 	 6.276873 	 0.877125 	 0.739938 	 0.743500 	  
 10.745673 	 6.684884 	 6.504813 	 0.879375 	 0.742437 	 0.744375 	  
 3.624536 	 5.188345 	 5.050717 	 0.876750 	 0.740250 	 0.744875 	  
 -0.981409 	 3.704382 	 -0.404105 	 0.879313 	 0.742250 	 0.743938 	  
 3.593096 	 4.660155 	 -2.549878 	 0.875875 	 0.740437 	 0.745563 	  
 16.137616 	 4.584699 	 -3.933234 	 0.879188 	 0.741187 	 0.743437 	  
 22.291976 	 2.937248 	 -1.787461 	 0.876062 	 0.741313 	 0.745563 	  
 19.643164 	 1.402981 	 3.675222 	 0.879188 	 0.741000 	 0.743563 	  
 15.760337 	 2.308450 	 3.895301 	 0.876250 	 0.742063 	 0.745500 	  
 9.629557 	 2.446786 	 0.751311 	 0.879000 	 0.740437 	 0.743500 	  
 4.166875 	 3.440287 	 -2.015400 	 0.875750 	 0.742375 	 0.745563 	  
 5.094352 	 4.282876 	 -4.554172 	 0.877313 	 0.740250 	 0.743500 	  
 14.384841 	 3.377407 	 -3.540235 	 0.877812 	 0.742125 	 0.745250 	  
 19.847524 	 2.610273 	 0.507652 	 0.876500 	 0.740125 	 0.743500 	  
 15.878237 	 3.716958 	 1.749528 	 0.879250 	 0.742250 	 0.744125 	  
 9.480217 	 6.093814 	 3.447282 	 0.876250 	 0.740313 	 0.744688 	  
 5.471630 	 7.087315 	 6.261153 	 0.879062 	 0.742125 	 0.744125 	  
 2.602740 	 6.420789 	 3.022844 	 0.875812 	 0.740250 	 0.743812 	  
 5.400891 	 5.930327 	 1.238630 	 0.878625 	 0.742125 	 0.744062 	  
 10.588474 	 5.565624 	 4.948538 	 0.876625 	 0.740250 	 0.745437 	  
 13.504524 	 3.654078 	 6.237573 	 0.879938 	 0.741938 	 0.743750 	  
 10.588474 	 3.151040 	 7.935328 	 0.876938 	 0.740063 	 0.745437 	  
 5.613110 	 6.131542 	 4.539819 	 0.879750 	 0.741437 	 0.743625 	  
 0.449107 	 9.439019 	 2.519805 	 0.877062 	 0.740000 	 0.745500 	  
 -1.877446 	 8.847949 	 4.767758 	 0.880062 	 0.740000 	 0.743437 	  
 2.697059 	 7.967632 	 8.831365 	 0.876625 	 0.741437 	 0.745625 	  
 8.654920 	 8.382639 	 8.234007 	 0.879875 	 0.740250 	 0.743375 	  
 11.791050 	 9.413867 	 1.883148 	 0.877250 	 0.741750 	 0.745437 	  
 8.474141 	 9.137196 	 1.246490 	 0.878875 	 0.739875 	 0.743375 	  
 3.286557 	 10.721767 	 1.553029 	 0.876812 	 0.742000 	 0.745437 	  
 -1.280088 	 12.432097 	 1.938167 	 0.877250 	 0.739750 	 0.743250 	  
 -0.384051 	 12.356642 	 2.284006 	 0.879125 	 0.741875 	 0.744437 	  
 5.833189 	 10.847527 	 3.007124 	 0.876500 	 0.739875 	 0.744437 	  
 12.129029 	 8.609006 	 2.559105 	 0.879437 	 0.742000 	 0.743625 	  
 14.376981 	 7.250802 	 1.160030 	 0.876750 	 0.740812 	 0.745500 	  
 12.262648 	 5.942903 	 4.681298 	 0.879625 	 0.740563 	 0.743500 	  
 7.303004 	 6.194422 	 5.938894 	 0.876750 	 0.742500 	 0.745437 	  
 2.107561 	 6.018358 	 3.360823 	 0.878563 	 0.740500 	 0.743375 	  
 3.097918 	 7.439442 	 3.297943 	 0.877375 	 0.742437 	 0.745500 	  
 8.945739 	 7.426866 	 5.655935 	 0.877625 	 0.740313 	 0.743313 	  
 14.007563 	 6.068662 	 4.665579 	 0.879437 	 0.742188 	 0.744688 	  
 14.054722 	 5.439864 	 5.538036 	 0.877188 	 0.740187 	 0.743688 	  
 9.833916 	 6.961555 	 5.860295 	 0.880000 	 0.742000 	 0.744000 	  
 3.624536 	 9.313260 	 3.863861 	 0.877062 	 0.739938 	 0.745062 	  
 2.021101 	 11.111622 	 4.720598 	 0.879563 	 0.742188 	 0.743938 	  
 7.137945 	 12.105123 	 4.712738 	 0.876875 	 0.739875 	 0.745062 	  
 15.555978 	 11.740420 	 3.062144 	 0.879750 	 0.741563 	 0.743500 	  
 20.319122 	 11.576932 	 2.260426 	 0.876625 	 0.740375 	 0.745563 	  
 19.430945 	 11.337989 	 2.449066 	 0.879812 	 0.741125 	 0.743437 	  
 15.744617 	 11.073894 	 4.634139 	 0.876625 	 0.740875 	 0.745500 	  
 8.214761 	 9.489323 	 2.331166 	 0.879500 	 0.741125 	 0.743437 	  
 3.883915 	 8.344911 	 1.835988 	 0.876750 	 0.742125 	 0.745375 	  
 8.678500 	 6.546549 	 2.629845 	 0.879625 	 0.740250 	 0.743375 	  
 15.909676 	 5.364408 	 3.690942 	 0.876563 	 0.742188 	 0.745563 	  
 18.613508 	 6.131542 	 1.946027 	 0.878250 	 0.740187 	 0.743250 	  
 17.575991 	 7.602929 	 3.376543 	 0.877750 	 0.742125 	 0.745375 	  
 11.193692 	 7.602929 	 2.433346 	 0.877125 	 0.739750 	 0.743313 	  
 2.728499 	 5.553048 	 5.074297 	 0.879000 	 0.742000 	 0.745000 	  
 2.476980 	 4.295452 	 5.294376 	 0.877000 	 0.739563 	 0.743437 	  
 11.398051 	 5.150617 	 4.256860 	 0.879375 	 0.741688 	 0.743938 	  
 15.996136 	 5.138041 	 6.111814 	 0.876563 	 0.739750 	 0.745313 	  
 13.418065 	 3.855293 	 2.323306 	 0.879437 	 0.741437 	 0.743437 	  
 8.757100 	 4.119388 	 1.584468 	 0.876375 	 0.740000 	 0.745375 	  
 6.469847 	 4.823642 	 0.735591 	 0.879437 	 0.740500 	 0.743313 	  
 6.124008 	 5.527896 	 0.924231 	 0.877062 	 0.742000 	 0.745437 	  
 7.821763 	 5.540472 	 4.854218 	 0.879000 	 0.740250 	 0.743500 	  
 13.197985 	 4.609851 	 3.352963 	 0.877125 	 0.742375 	 0.745437 	  
 15.375198 	 2.258146 	 1.002830 	 0.877313 	 0.740187 	 0.743250 	  
 12.820706 	 2.056931 	 2.527665 	 0.879688 	 0.742625 	 0.744188 	  
 8.002542 	 3.138464 	 4.115380 	 0.876938 	 0.740187 	 0.745250 	  
 2.814959 	 4.257724 	 2.252566 	 0.880125 	 0.741688 	 0.743563 	  
 0.409807 	 4.899098 	 2.142527 	 0.877062 	 0.740563 	 0.745375 	  
 5.345871 	 4.043933 	 3.384403 	 0.880313 	 0.740625 	 0.743437 	  
 13.520244 	 3.377407 	 2.535525 	 0.877188 	 0.742313 	 0.745437 	  
 17.623151 	 3.478014 	 2.873504 	 0.880188 	 0.740375 	 0.743563 	  
 15.532398 	 4.534395 	 2.621985 	 0.877000 	 0.742500 	 0.745375 	  
 10.195475 	 4.584699 	 4.201840 	 0.878688 	 0.740313 	 0.743250 	  
 6.084708 	 4.748186 	 2.260426 	 0.877250 	 0.742500 	 0.745563 	  
 5.440190 	 4.873946 	 5.915314 	 0.878000 	 0.740437 	 0.743313 	  
 10.761393 	 5.779415 	 7.165050 	 0.878500 	 0.742437 	 0.745313 	  
 15.233719 	 6.684884 	 1.474429 	 0.877688 	 0.740250 	 0.743437 	  
 17.968990 	 6.295029 	 -0.930723 	 0.880000 	 0.742250 	 0.744250 	  
 15.901817 	 5.980630 	 1.828128 	 0.877313 	 0.740250 	 0.744625 	  
 9.118658 	 6.622004 	 2.967824 	 0.879938 	 0.742437 	 0.743812 	  
 2.893559 	 7.904752 	 2.032487 	 0.877062 	 0.740688 	 0.745125 	  
 5.227971 	 8.998861 	 0.169673 	 0.880062 	 0.742313 	 0.743625 	  
 12.962186 	 9.187500 	 4.146820 	 0.877062 	 0.740375 	 0.745375 	  
 15.610997 	 7.087315 	 3.989621 	 0.880000 	 0.741187 	 0.743437 	  
 13.087946 	 6.672308 	 5.231497 	 0.877250 	 0.741750 	 0.745313 	  
 8.599900 	 8.495822 	 3.997481 	 0.880062 	 0.740563 	 0.743437 	  
 4.103995 	 10.004937 	 7.133611 	 0.876938 	 0.742188 	 0.745375 	  
 -0.195411 	 7.942480 	 6.457653 	 0.879875 	 0.740187 	 0.743188 	  
 1.353004 	 5.678807 	 8.564126 	 0.876938 	 0.742125 	 0.745375 	  
 7.585963 	 4.911674 	 6.041074 	 0.879500 	 0.740063 	 0.743313 	  
 12.875726 	 5.213497 	 4.280440 	 0.877375 	 0.742000 	 0.745313 	  
 10.486294 	 5.037433 	 3.164323 	 0.878688 	 0.739938 	 0.743375 	  
 3.561656 	 4.873946 	 2.354746 	 0.878437 	 0.742188 	 0.745250 	  
 -3.237222 	 5.817143 	 0.884931 	 0.877875 	 0.740187 	 0.743250 	  
 -4.455518 	 7.024435 	 0.366172 	 0.880125 	 0.742250 	 0.743875 	  
 -0.855649 	 6.471093 	 2.291866 	 0.877188 	 0.740500 	 0.745313 	  
 4.261194 	 6.244726 	 0.429052 	 0.880500 	 0.741187 	 0.743437 	  
 6.996465 	 7.577777 	 -1.669561 	 0.877563 	 0.742063 	 0.745375 	  
 5.361591 	 7.489745 	 -1.913220 	 0.880125 	 0.740313 	 0.743437 	  
 3.097918 	 7.275954 	 -1.465202 	 0.877812 	 0.742625 	 0.745375 	  
 0.433387 	 6.596852 	 1.191470 	 0.878375 	 0.740313 	 0.743375 	  
 1.973942 	 6.345333 	 0.311153 	 0.880437 	 0.742313 	 0.744250 	  
 8.741380 	 7.690961 	 1.584468 	 0.877812 	 0.740437 	 0.744000 	  
 14.243362 	 8.759917 	 -0.859984 	 0.880437 	 0.742313 	 0.743938 	  
 16.216215 	 7.238226 	 2.779185 	 0.877437 	 0.740187 	 0.745062 	  
 16.106176 	 5.439864 	 1.348669 	 0.880625 	 0.742063 	 0.743563 	  
 13.999703 	 6.634580 	 1.961747 	 0.877563 	 0.740313 	 0.745313 	  
 10.604194 	 7.577777 	 2.810625 	 0.880250 	 0.741125 	 0.743437 	  
 11.405911 	 8.080816 	 3.093584 	 0.877437 	 0.740938 	 0.745313 	  
 16.900033 	 8.609006 	 2.881364 	 0.880375 	 0.740500 	 0.743250 	  
 21.183719 	 10.445096 	 2.826344 	 0.877313 	 0.742188 	 0.745437 	  
 19.941843 	 11.476325 	 3.565182 	 0.880313 	 0.740313 	 0.743313 	  
 14.801420 	 12.193154 	 6.198274 	 0.877625 	 0.742250 	 0.745375 	  
 7.884642 	 11.991939 	 5.294376 	 0.879313 	 0.740125 	 0.743250 	  
 3.852476 	 12.230882 	 4.610559 	 0.877812 	 0.742500 	 0.745437 	  
 5.133651 	 11.300261 	 3.903161 	 0.878375 	 0.740313 	 0.743125 	  
 11.343031 	 10.621159 	 5.640215 	 0.880062 	 0.742125 	 0.744688 	  
 13.182265 	 10.281608 	 3.282223 	 0.877812 	 0.740250 	 0.743188 	  
 10.124735 	 10.570856 	 2.763465 	 0.880313 	 0.742063 	 0.744125 	  
 5.062912 	 10.998438 	 6.834931 	 0.877500 	 0.739750 	 0.744062 	  
 0.291907 	 10.470248 	 6.111814 	 0.880250 	 0.741812 	 0.744188 	  
 -3.716680 	 9.187500 	 7.825288 	 0.877812 	 0.739875 	 0.743250 	  
 -1.319388 	 7.313682 	 3.486582 	 0.880062 	 0.741812 	 0.744125 	  
 4.017535 	 5.389560 	 4.791338 	 0.877375 	 0.739938 	 0.744437 	  
 8.607760 	 4.358332 	 6.921391 	 0.880250 	 0.741812 	 0.743563 	  
 8.293361 	 5.213497 	 8.980705 	 0.877188 	 0.739750 	 0.745188 	  
 6.265488 	 5.263801 	 4.193980 	 0.880125 	 0.741313 	 0.743500 	  
 3.860335 	 3.679230 	 6.371193 	 0.877375 	 0.739750 	 0.745125 	  
 2.877839 	 1.906020 	 4.634139 	 0.880313 	 0.740437 	 0.743375 	  
 9.079359 	 2.371330 	 4.901378 	 0.877375 	 0.742188 	 0.745437 	  
 14.416281 	 2.044355 	 6.528392 	 0.879437 	 0.740375 	 0.743125 	  
 17.190852 	 1.931171 	 9.837442 	 0.877875 	 0.742313 	 0.745375 	  
 15.092239 	 3.301951 	 4.249000 	 0.878062 	 0.740500 	 0.743313 	  
 13.300165 	 4.785914 	 2.063927 	 0.880313 	 0.742375 	 0.744375 	  
 10.784973 	 6.735188 	 0.319013 	 0.877625 	 0.740250 	 0.743688 	  
 11.908949 	 8.533550 	 -0.435545 	 0.880250 	 0.742375 	 0.744125 	  
 15.988276 	 9.225228 	 -5.120090 	 0.877625 	 0.740250 	 0.744688 	  
 18.904327 	 9.338412 	 -6.762825 	 0.880313 	 0.742250 	 0.743938 	  
 17.403072 	 9.376139 	 -4.774251 	 0.877500 	 0.740375 	 0.745313 	  
 14.062582 	 9.200076 	 -3.485215 	 0.880500 	 0.740938 	 0.743250 	  
 10.384114 	 9.237804 	 0.319013 	 0.877313 	 0.741125 	 0.745375 	  
 6.744946 	 7.590353 	 -0.254766 	 0.880250 	 0.740375 	 0.743188 	  
 8.709940 	 7.301106 	 0.719871 	 0.877437 	 0.742000 	 0.745313 	  
 13.276585 	 6.269877 	 2.464786 	 0.880313 	 0.740250 	 0.743250 	  
 13.677444 	 4.760762 	 5.545896 	 0.877250 	 0.742125 	 0.745375 	  
 10.525594 	 5.490168 	 4.697018 	 0.879125 	 0.740375 	 0.743125 	  
 7.664563 	 8.873101 	 2.417626 	 0.878062 	 0.742437 	 0.745188 	  
 1.714562 	 11.337989 	 2.480506 	 0.878000 	 0.740563 	 0.743313 	  
 -3.135042 	 9.942058 	 3.486582 	 0.880188 	 0.742313 	 0.744375 	  
 0.048248 	 6.986707 	 5.451576 	 0.877625 	 0.740187 	 0.743500 	  
 7.295144 	 7.426866 	 5.820995 	 0.880188 	 0.742250 	 0.744000 	  
 10.368394 	 9.174924 	 7.235790 	 0.877500 	 0.740250 	 0.744688 	  
 8.780680 	 8.709614 	 6.504813 	 0.880250 	 0.742063 	 0.743812 	  
 2.948578 	 7.175347 	 4.539819 	 0.877250 	 0.740500 	 0.744563 	  
 -1.720246 	 6.345333 	 3.533742 	 0.880250 	 0.742313 	 0.743500 	  
 -1.342968 	 7.401714 	 1.851708 	 0.877250 	 0.740187 	 0.745125 	  
 5.377311 	 7.716113 	 1.010690 	 0.880188 	 0.740938 	 0.743250 	  
 11.421631 	 7.829296 	 0.523372 	 0.877250 	 0.741250 	 0.745250 	  
 12.797127 	 7.074739 	 1.773108 	 0.880188 	 0.740375 	 0.743250 	  
 9.000759 	 6.747764 	 3.565182 	 0.877062 	 0.742313 	 0.745313 	  
 3.420177 	 6.106390 	 7.385130 	 0.879750 	 0.740063 	 0.743063 	  
 1.384444 	 5.892599 	 6.434073 	 0.877563 	 0.742375 	 0.745188 	  
 3.813176 	 6.257301 	 8.917825 	 0.878188 	 0.740313 	 0.743250 	  
 10.360534 	 6.634580 	 5.200057 	 0.880688 	 0.742437 	 0.744062 	  
 15.972556 	 6.684884 	 6.724892 	 0.877812 	 0.740375 	 0.745125 	  
 18.369849 	 4.333180 	 4.759898 	 0.880437 	 0.741688 	 0.743500 	  
 13.449504 	 4.270300 	 3.219343 	 0.877500 	 0.740750 	 0.745313 	  
 7.161525 	 5.741687 	 0.845631 	 0.880437 	 0.740938 	 0.743188 	  
 5.353731 	 7.263378 	 3.596622 	 0.877313 	 0.742375 	 0.745375 	  
 10.274075 	 6.986707 	 2.276146 	 0.880375 	 0.740625 	 0.743313 	  
 17.505251 	 6.445941 	 6.465513 	 0.877563 	 0.742500 	 0.745313 	  
 20.216943 	 5.779415 	 6.866371 	 0.879875 	 0.740500 	 0.743313 	  
 20.452742 	 6.056086 	 5.404416 	 0.877375 	 0.742688 	 0.745313 	  
 17.450232 	 6.483669 	 2.582685 	 0.879000 	 0.740563 	 0.743125 	  
 10.682793 	 5.829719 	 4.311880 	 0.877750 	 0.742875 	 0.745437 	  
 6.037548 	 4.723034 	 4.979977 	 0.878375 	 0.740688 	 0.743125 	  
 10.635634 	 5.766839 	 1.804548 	 0.879500 	 0.742625 	 0.744875 	  
 16.019716 	 7.904752 	 3.038564 	 0.877875 	 0.740500 	 0.743063 	  
 15.461658 	 7.879600 	 3.054284 	 0.880125 	 0.742625 	 0.744375 	  
 11.979689 	 6.118966 	 3.911021 	 0.877688 	 0.740688 	 0.743500 	  
 8.906439 	 5.641079 	 2.346886 	 0.880313 	 0.742375 	 0.743938 	  
 5.510930 	 6.923827 	 4.374759 	 0.877437 	 0.740750 	 0.745000 	  
 5.746729 	 7.049587 	 2.205406 	 0.880500 	 0.742188 	 0.743375 	  
 9.998976 	 7.602929 	 3.667362 	 0.877437 	 0.740875 	 0.745313 	  
 12.050429 	 8.269455 	 1.081430 	 0.880188 	 0.741688 	 0.743313 	  
 11.225132 	 9.413867 	 2.504085 	 0.877500 	 0.740750 	 0.745188 	  
 9.087219 	 8.131119 	 1.207190 	 0.880250 	 0.741000 	 0.743188 	  
 5.259411 	 7.263378 	 3.683082 	 0.877250 	 0.741688 	 0.745313 	  
 0.425527 	 7.992784 	 3.690942 	 0.880375 	 0.740313 	 0.743063 	  
 -0.997129 	 9.313260 	 3.533742 	 0.877188 	 0.742375 	 0.745250 	  
 3.082198 	 9.074316 	 -0.804964 	 0.879250 	 0.740437 	 0.743188 	  
 10.022556 	 10.306760 	 0.782751 	 0.877875 	 0.742313 	 0.745250 	  
 13.347325 	 11.979363 	 3.871721 	 0.878375 	 0.739938 	 0.743000 	  
 10.722093 	 10.834951 	 2.284006 	 0.878750 	 0.742250 	 0.745000 	  
 5.558090 	 8.860525 	 -0.152586 	 0.877812 	 0.740250 	 0.743063 	  
 3.797456 	 8.168847 	 1.160030 	 0.880313 	 0.742125 	 0.743688 	  
 5.078632 	 7.376562 	 2.339026 	 0.877437 	 0.740500 	 0.745188 	  
 8.191181 	 5.905175 	 1.631628 	 0.880563 	 0.741187 	 0.743188 	  
 9.354458 	 6.395637 	 -0.765664 	 0.877500 	 0.742063 	 0.745250 	  
 8.434841 	 5.779415 	 1.277929 	 0.880375 	 0.740812 	 0.743375 	  
 6.925726 	 5.364408 	 4.036781 	 0.877375 	 0.742688 	 0.745250 	  
 2.587020 	 3.289375 	 6.897811 	 0.878688 	 0.740563 	 0.743125 	  
 1.525923 	 2.484514 	 3.077864 	 0.878688 	 0.742750 	 0.745250 	  
 8.937879 	 3.478014 	 3.392263 	 0.878188 	 0.740563 	 0.743125 	  
 18.094749 	 4.509243 	 2.362606 	 0.880000 	 0.742375 	 0.744500 	  
 19.525265 	 4.194844 	 1.183610 	 0.877563 	 0.740625 	 0.743563 	  
 17.316612 	 3.880445 	 0.334733 	 0.880375 	 0.742500 	 0.743938 	  
 11.869650 	 5.163193 	 2.582685 	 0.877563 	 0.740375 	 0.745000 	  
 5.660270 	 6.697460 	 3.368683 	 0.880188 	 0.741875 	 0.743500 	  
 4.127575 	 7.615505 	 2.637705 	 0.877250 	 0.740375 	 0.745125 	  
 9.016479 	 6.911251 	 7.935328 	 0.880375 	 0.741063 	 0.743188 	  
 13.363045 	 6.722612 	 8.422646 	 0.877250 	 0.740625 	 0.745250 	  
 14.714960 	 6.144118 	 6.284733 	 0.880375 	 0.740812 	 0.743188 	  
 11.681010 	 5.729111 	 -2.659918 	 0.877375 	 0.741750 	 0.745188 	  
 4.496993 	 5.867447 	 0.004614 	 0.880250 	 0.740375 	 0.743250 	  
 -0.218991 	 7.137619 	 1.427269 	 0.877313 	 0.742375 	 0.745313 	  
 1.887482 	 7.376562 	 1.576609 	 0.879125 	 0.740375 	 0.743125 	  
 10.478434 	 7.062163 	 5.907454 	 0.877437 	 0.742250 	 0.745188 	  
 14.942900 	 7.527473 	 4.728458 	 0.878437 	 0.740313 	 0.743063 	  
 12.765687 	 8.118543 	 3.376543 	 0.878875 	 0.741938 	 0.744938 	  
 6.422687 	 8.080816 	 3.447282 	 0.878062 	 0.739938 	 0.743125 	  
 2.618460 	 8.055664 	 3.628062 	 0.879812 	 0.742250 	 0.744250 	  
 2.115421 	 8.080816 	 3.879581 	 0.877375 	 0.740000 	 0.743500 	  
 3.915355 	 7.540049 	 1.780968 	 0.880000 	 0.741938 	 0.743500 	  
 7.853203 	 8.156271 	 4.516239 	 0.877188 	 0.740125 	 0.745125 	  
 12.773547 	 8.005360 	 5.923174 	 0.880125 	 0.740938 	 0.743000 	  
 13.504524 	 8.546126 	 4.201840 	 0.877188 	 0.740375 	 0.745125 	  
 8.780680 	 9.967209 	 6.929251 	 0.880250 	 0.740313 	 0.743125 	  
 4.842832 	 11.048742 	 3.879581 	 0.877375 	 0.742188 	 0.745313 	  
 3.750296 	 10.105545 	 4.374759 	 0.879125 	 0.740187 	 0.743125 	  
 7.090785 	 7.728689 	 4.697018 	 0.878812 	 0.742563 	 0.745062 	  
 11.971829 	 6.370485 	 3.321523 	 0.878000 	 0.740375 	 0.743000 	  
 14.039003 	 5.779415 	 2.849924 	 0.880437 	 0.742437 	 0.743812 	  
 10.454854 	 6.684884 	 3.675222 	 0.877437 	 0.740812 	 0.745125 	  
 1.942502 	 6.081238 	 1.387969 	 0.880563 	 0.741563 	 0.743125 	  
 -5.115755 	 4.597275 	 2.991404 	 0.877437 	 0.742000 	 0.745125 	  
 -2.985702 	 4.320604 	 2.307586 	 0.880313 	 0.740938 	 0.743250 	  
 6.139728 	 5.666231 	 4.995697 	 0.877500 	 0.742437 	 0.745125 	  
 11.633850 	 4.811066 	 3.730242 	 0.880500 	 0.740500 	 0.743063 	  
 13.653864 	 4.320604 	 4.453359 	 0.877313 	 0.742625 	 0.745188 	  
 11.924669 	 4.924250 	 5.593055 	 0.879500 	 0.740500 	 0.743063 	  
 8.576320 	 4.848794 	 4.374759 	 0.877313 	 0.742375 	 0.745125 	  
 4.748513 	 4.509243 	 5.545896 	 0.878375 	 0.740437 	 0.743188 	  
 8.356241 	 5.917751 	 8.666306 	 0.878500 	 0.742688 	 0.745125 	  
 16.436295 	 6.986707 	 7.911748 	 0.878188 	 0.740437 	 0.743000 	  
 21.450959 	 7.703537 	 6.748472 	 0.880062 	 0.742500 	 0.744313 	  
 22.802874 	 8.759917 	 2.708445 	 0.877750 	 0.740625 	 0.743313 	  
 21.922557 	 10.243881 	 0.656991 	 0.880313 	 0.742500 	 0.743938 	  
 16.994353 	 9.979785 	 -2.526298 	 0.877375 	 0.740563 	 0.744500 	  
 14.164762 	 7.565201 	 -4.844991 	 0.880250 	 0.742188 	 0.743375 	  
 16.310535 	 6.068662 	 -5.065070 	 0.877500 	 0.740375 	 0.745188 	  
 18.016150 	 6.483669 	 -2.455558 	 0.880250 	 0.740938 	 0.743188 	  
 16.420575 	 7.162771 	 1.442989 	 0.877313 	 0.741812 	 0.745000 	  
 13.811063 	 7.401714 	 5.514456 	 0.880188 	 0.740125 	 0.743063 	  
 11.099372 	 9.099468 	 5.710955 	 0.877188 	 0.742188 	 0.745125 	  
 5.165091 	 10.243881 	 7.062871 	 0.879500 	 0.740063 	 0.742938 	  
 0.810665 	 9.036588 	 9.507323 	 0.877313 	 0.742188 	 0.745125 	  
 3.090058 	 5.615928 	 5.868155 	 0.878563 	 0.740125 	 0.743063 	  
 8.128302 	 3.893021 	 5.435856 	 0.878125 	 0.742125 	 0.744938 	  
 5.322291 	 4.320604 	 3.604482 	 0.877938 	 0.739938 	 0.742875 	  
 0.401947 	 3.905597 	 1.411549 	 0.880000 	 0.742000 	 0.744062 	  
 -2.663443 	 3.226495 	 2.386186 	 0.877313 	 0.740125 	 0.744437 	  
 -4.133259 	 3.515742 	 2.048207 	 0.880250 	 0.742063 	 0.743188 	  
 -1.798846 	 4.458939 	 2.614125 	 0.877188 	 0.740938 	 0.745188 	  
 5.848909 	 3.352255 	 1.427269 	 0.880062 	 0.741000 	 0.743125 	  
 11.728170 	 2.232995 	 1.898867 	 0.877313 	 0.742500 	 0.745125 	  
 12.074009 	 1.541317 	 2.001047 	 0.878688 	 0.740313 	 0.743063 	  
 10.454854 	 2.283298 	 4.068220 	 0.878688 	 0.742563 	 0.745062 	  
 7.578103 	 4.358332 	 3.683082 	 0.878000 	 0.740500 	 0.742938 	  
 6.556307 	 6.332757 	 2.024627 	 0.880000 	 0.742188 	 0.744188 	  
 10.784973 	 7.489745 	 4.697018 	 0.877375 	 0.740437 	 0.743375 	  
 19.313045 	 6.634580 	 5.435856 	 0.880250 	 0.742250 	 0.743688 	  
 22.747854 	 4.924250 	 5.844575 	 0.877313 	 0.740313 	 0.745062 	  
 20.562781 	 5.087737 	 4.406199 	 0.880250 	 0.741500 	 0.743125 	  
 13.528104 	 7.187922 	 6.174694 	 0.877250 	 0.740500 	 0.745000 	  
 4.905712 	 7.338834 	 3.368683 	 0.880062 	 0.741250 	 0.743250 	  
 -0.611990 	 7.917328 	 4.068220 	 0.877125 	 0.741063 	 0.745188 	  
 1.478763 	 7.602929 	 2.865644 	 0.880250 	 0.740812 	 0.743000 	  
 8.246201 	 7.250802 	 -1.787461 	 0.877125 	 0.741938 	 0.745062 	  
 10.714233 	 5.590776 	 -4.569892 	 0.880125 	 0.740688 	 0.743250 	  
 8.662780 	 4.861370 	 -1.583101 	 0.877313 	 0.742375 	 0.745062 	  
 4.363374 	 4.622427 	 -0.545585 	 0.878750 	 0.740437 	 0.742938 	  
 -0.376191 	 3.830141 	 2.048207 	 0.877750 	 0.742500 	 0.745125 	  
 -2.600564 	 4.496667 	 1.757388 	 0.877938 	 0.740375 	 0.742875 	  
 3.420177 	 5.867447 	 5.286516 	 0.879812 	 0.742437 	 0.744062 	  
 10.525594 	 8.508398 	 3.785261 	 0.877375 	 0.740250 	 0.743375 	  
 12.694947 	 10.017513 	 5.003557 	 0.880000 	 0.741938 	 0.743688 	  
 9.566677 	 11.023590 	 8.650586 	 0.877062 	 0.740063 	 0.744938 	  
 4.882132 	 11.287685 	 6.544112 	 0.879938 	 0.741625 	 0.743188 	  
 -0.281871 	 11.363141 	 7.982488 	 0.877000 	 0.739938 	 0.744875 	  
 -0.384051 	 11.828451 	 6.662012 	 0.880062 	 0.740875 	 0.743063 	  
 5.707430 	 13.299839 	 5.773835 	 0.877062 	 0.740500 	 0.745125 	  
 11.413771 	 12.633313 	 1.592328 	 0.880000 	 0.740250 	 0.742938 	  
 15.131539 	 11.639812 	 0.208973 	 0.877250 	 0.741750 	 0.744875 	  
 13.543824 	 10.759495 	 4.162540 	 0.879563 	 0.739875 	 0.743000 	  
 6.886426 	 9.879178 	 1.537309 	 0.877188 	 0.742250 	 0.745000 	  
 -0.847789 	 8.395215 	 2.048207 	 0.878000 	 0.740063 	 0.743000 	  
 -1.397987 	 6.672308 	 5.718815 	 0.880000 	 0.742125 	 0.743875 	  
 4.717073 	 6.571700 	 5.262937 	 0.877250 	 0.740375 	 0.744812 	  
 13.685304 	 7.867024 	 5.742395 	 0.880250 	 0.741875 	 0.743125 	  
 17.654591 	 10.922982 	 5.027137 	 0.877000 	 0.740313 	 0.745000 	  
 13.850363 	 11.778148 	 4.594839 	 0.879938 	 0.741437 	 0.743125 	  
 6.336227 	 9.929482 	 3.305803 	 0.877250 	 0.740500 	 0.744875 	  
 0.496266 	 8.495822 	 3.439422 	 0.880000 	 0.740500 	 0.743125 	  
 4.253334 	 9.916906 	 -2.141159 	 0.877188 	 0.741938 	 0.745125 	  
 12.239068 	 11.036166 	 -3.500935 	 0.880188 	 0.740187 	 0.742875 	  
 15.917536 	 11.337989 	 -5.662428 	 0.876875 	 0.742000 	 0.745188 	  
 13.928963 	 9.803722 	 -4.499152 	 0.878875 	 0.740187 	 0.743000 	  
 10.226915 	 7.401714 	 -3.854634 	 0.877688 	 0.741875 	 0.745000 	  
 5.157231 	 5.880023 	 -1.402322 	 0.877812 	 0.740000 	 0.743000 	  
 4.135435 	 7.778993 	 3.030704 	 0.879875 	 0.742000 	 0.743938 	  
 10.596334 	 10.746919 	 6.103954 	 0.877313 	 0.740000 	 0.744125 	  
 17.560271 	 10.998438 	 4.508379 	 0.880125 	 0.741812 	 0.743563 	  
 17.575991 	 8.156271 	 3.172183 	 0.877125 	 0.740437 	 0.744688 	  
 14.149042 	 4.383484 	 4.280440 	 0.880250 	 0.741938 	 0.743188 	  
 9.653137 	 3.817565 	 3.447282 	 0.877250 	 0.740313 	 0.745062 	  
 4.198314 	 4.169692 	 3.172183 	 0.880062 	 0.741125 	 0.743063 	  
 4.827112 	 4.987130 	 4.775618 	 0.877000 	 0.740812 	 0.745000 	  
 12.443428 	 5.062585 	 7.165050 	 0.881000 	 0.740563 	 0.743000 	  
 18.244089 	 4.672731 	 9.750982 	 0.877938 	 0.741812 	 0.744938 	  
 18.409148 	 3.679230 	 7.746689 	 0.881125 	 0.740625 	 0.742875 	  
 14.188342 	 3.578622 	 1.623768 	 0.878000 	 0.741812 	 0.745000 	  
 8.096862 	 2.597697 	 1.765248 	 0.880938 	 0.740250 	 0.742938 	  
 4.960732 	 2.962400 	 3.824561 	 0.878062 	 0.742125 	 0.744938 	  
 9.212978 	 6.282453 	 6.544112 	 0.879313 	 0.740000 	 0.742875 	  
 18.047590 	 7.942480 	 8.053228 	 0.878563 	 0.742063 	 0.744875 	  
 20.374142 	 6.131542 	 5.954614 	 0.878938 	 0.739875 	 0.742750 	  
 18.369849 	 4.345756 	 2.189687 	 0.880000 	 0.741437 	 0.744625 	  
 12.498448 	 3.540894 	 2.205406 	 0.877938 	 0.740125 	 0.743250 	  
 4.127575 	 2.446786 	 -1.457342 	 0.880875 	 0.741875 	 0.743125 	  
 -1.728106 	 1.289798 	 -4.334092 	 0.877688 	 0.740500 	 0.744938 	  
 1.942502 	 -0.080982 	 -1.826760 	 0.880625 	 0.740437 	 0.743063 	  
 12.207628 	 -0.785236 	 -1.763881 	 0.877875 	 0.742500 	 0.745000 	  
 17.678171 	 -1.263122 	 -0.577025 	 0.878812 	 0.740313 	 0.742875 	  
 15.689597 	 -0.822964 	 1.828128 	 0.879812 	 0.742375 	 0.744563 	  
 10.470574 	 0.346601 	 1.521589 	 0.877812 	 0.740250 	 0.742938 	  
 6.477707 	 1.365253 	 2.739885 	 0.880500 	 0.742000 	 0.743500 	  
 4.897852 	 2.786337 	 5.585196 	 0.877437 	 0.740375 	 0.745125 	  
 10.234775 	 3.616350 	 4.256860 	 0.880437 	 0.741125 	 0.743000 	  
 17.088673 	 4.873946 	 5.718815 	 0.877500 	 0.740688 	 0.744938 	  
 18.857167 	 5.402136 	 2.260426 	 0.880375 	 0.740625 	 0.743125 	  
 15.320178 	 6.320181 	 6.536252 	 0.877437 	 0.742125 	 0.745000 	  
 8.081142 	 5.666231 	 2.032487 	 0.880625 	 0.740625 	 0.742938 	  
 1.125064 	 5.716535 	 6.174694 	 0.877500 	 0.742250 	 0.745125 	  
 -0.384051 	 5.980630 	 8.265447 	 0.879250 	 0.740437 	 0.742875 	  
 7.530944 	 7.867024 	 6.819212 	 0.878375 	 0.742563 	 0.744875 	  
 13.787483 	 10.306760 	 3.282223 	 0.878500 	 0.740437 	 0.742938 	  
 15.422358 	 10.621159 	 2.504085 	 0.880000 	 0.742313 	 0.744313 	  
 11.091512 	 9.137196 	 3.690942 	 0.877938 	 0.740375 	 0.743000 	  
 3.553796 	 8.445518 	 5.090017 	 0.880688 	 0.742437 	 0.743563 	  
 -3.025002 	 10.382216 	 5.412276 	 0.877500 	 0.740625 	 0.744938 	  
 -0.926389 	 12.595585 	 7.149330 	 0.880688 	 0.741063 	 0.742812 	  
 8.277641 	 14.217884 	 8.344047 	 0.877500 	 0.740875 	 0.745000 	  
 13.347325 	 13.601662 	 8.941405 	 0.880437 	 0.740750 	 0.742875 	  
 10.934313 	 11.652388 	 7.455869 	 0.877625 	 0.741313 	 0.744812 	  
 2.759939 	 10.042665 	 5.372976 	 0.880437 	 0.740313 	 0.743000 	  
 -4.801356 	 9.489323 	 3.761681 	 0.877500 	 0.742250 	 0.745000 	  
 -8.008226 	 8.156271 	 3.486582 	 0.879938 	 0.740187 	 0.742688 	  
 -4.431938 	 6.194422 	 3.612342 	 0.877750 	 0.742313 	 0.745062 	  
 0.787085 	 3.930749 	 3.360823 	 0.878437 	 0.740375 	 0.742750 	  
 5.440190 	 3.691806 	 4.076080 	 0.880437 	 0.742250 	 0.743812 	  
 7.475924 	 5.364408 	 4.979977 	 0.877563 	 0.740250 	 0.744437 	  
 8.049702 	 5.590776 	 5.813135 	 0.880625 	 0.742188 	 0.743000 	  
 4.394814 	 4.597275 	 2.307586 	 0.877812 	 0.741063 	 0.744812 	  
 1.966082 	 3.402559 	 6.292593 	 0.880750 	 0.740875 	 0.742938 	  
 5.400891 	 3.955901 	 4.028921 	 0.877500 	 0.742688 	 0.745000 	  
 12.836426 	 5.553048 	 2.842064 	 0.879062 	 0.740812 	 0.742750 	  
 20.326982 	 7.338834 	 5.954614 	 0.879812 	 0.742750 	 0.744375 	  
 21.050100 	 8.005360 	 7.448009 	 0.878000 	 0.740812 	 0.742812 	  
 18.550628 	 8.847949 	 0.774891 	 0.880563 	 0.742625 	 0.743812 	  
 14.117602 	 9.024013 	 -2.447698 	 0.877625 	 0.740938 	 0.744563 	  
 11.877510 	 9.112044 	 0.161813 	 0.880375 	 0.742125 	 0.743125 	  
 16.247655 	 10.155849 	 0.106793 	 0.877750 	 0.741000 	 0.744875 	  
 23.801091 	 11.011014 	 0.719871 	 0.880563 	 0.741688 	 0.742875 	  
 28.226257 	 11.627236 	 4.374759 	 0.877250 	 0.742250 	 0.745000 	  
 24.201950 	 11.073894 	 4.461219 	 0.880563 	 0.741375 	 0.742812 	  
 14.031143 	 11.312837 	 3.117164 	 0.877500 	 0.742563 	 0.744875 	  
 3.538077 	 11.803300 	 2.857784 	 0.880188 	 0.741063 	 0.742812 	  
 2.170441 	 11.815875 	 3.132883 	 0.877563 	 0.742938 	 0.744875 	  
 6.988605 	 9.262956 	 5.176477 	 0.879000 	 0.740938 	 0.742750 	  
 10.219055 	 7.225650 	 5.868155 	 0.878000 	 0.743000 	 0.744875 	  
 9.456637 	 9.313260 	 7.589489 	 0.878500 	 0.740875 	 0.742688 	  
 7.711723 	 12.658465 	 5.475156 	 0.880500 	 0.742625 	 0.743938 	  
 3.813176 	 13.828029 	 3.659502 	 0.877688 	 0.740938 	 0.744188 	  
 -1.971766 	 13.526206 	 1.757388 	 0.880563 	 0.742500 	 0.743125 	  
 -1.570907 	 12.356642 	 4.492659 	 0.877812 	 0.740688 	 0.744688 	  
 7.303004 	 9.212652 	 4.390479 	 0.880750 	 0.742125 	 0.743063 	  
 16.192636 	 8.508398 	 3.745961 	 0.877750 	 0.741063 	 0.744750 	  
 17.206572 	 10.369640 	 4.964258 	 0.880938 	 0.741313 	 0.742812 	  
 11.940389 	 11.488901 	 2.818484 	 0.877563 	 0.741875 	 0.744750 	  
 4.072555 	 8.860525 	 2.582685 	 0.880500 	 0.741313 	 0.742812 	  
 0.771365 	 7.250802 	 1.906727 	 0.877500 	 0.742812 	 0.744688 	  
 3.490917 	 7.250802 	 4.021061 	 0.880000 	 0.740625 	 0.742812 	  
 8.874999 	 7.565201 	 -1.983960 	 0.877313 	 0.743063 	 0.744812 	  
 10.926453 	 7.615505 	 -4.231913 	 0.878563 	 0.740938 	 0.742688 	  
 10.415554 	 7.426866 	 -5.371609 	 0.879875 	 0.743063 	 0.744062 	  
 7.075065 	 6.609428 	 0.012474 	 0.877500 	 0.741125 	 0.744188 	  
 2.642039 	 5.477592 	 2.543385 	 0.880437 	 0.742625 	 0.742875 	  
 0.480546 	 5.490168 	 3.266503 	 0.877250 	 0.742000 	 0.744938 	  
 7.271564 	 6.420789 	 4.885658 	 0.880500 	 0.741375 	 0.742812 	  
 16.161196 	 7.879600 	 3.761681 	 0.877437 	 0.743000 	 0.744875 	  
 20.452742 	 8.609006 	 5.341536 	 0.879437 	 0.740938 	 0.742875 	  
 19.014366 	 8.445518 	 2.912804 	 0.877313 	 0.743125 	 0.744938 	  
 12.097589 	 7.137619 	 5.758115 	 0.879000 	 0.740938 	 0.742625 	  
 3.443757 	 4.823642 	 3.549462 	 0.877437 	 0.743000 	 0.744938 	  
 0.897125 	 2.019203 	 2.732025 	 0.878563 	 0.741000 	 0.742688 	  
 10.407694 	 0.723879 	 -0.081846 	 0.880625 	 0.743063 	 0.743875 	  
 19.030086 	 2.559969 	 -0.066126 	 0.878062 	 0.741000 	 0.743938 	  
 19.517405 	 5.703959 	 4.131100 	 0.880875 	 0.742563 	 0.743000 	  
 14.927180 	 6.181846 	 4.728458 	 0.878000 	 0.741313 	 0.744750 	  
 7.837483 	 4.056509 	 6.174694 	 0.880875 	 0.741563 	 0.742812 	  
 -0.077512 	 4.018781 	 7.660229 	 0.877875 	 0.741875 	 0.744812 	  
 -0.156111 	 5.200921 	 4.508379 	 0.880938 	 0.741500 	 0.742625 	  
 8.709940 	 5.251225 	 3.164323 	 0.877625 	 0.743313 	 0.744875 	  
 13.983983 	 5.729111 	 4.618419 	 0.880688 	 0.741250 	 0.742750 	  
 11.107232 	 5.867447 	 3.352963 	 0.878000 	 0.743250 	 0.744688 	  
 5.809609 	 5.276377 	 2.606265 	 0.879437 	 0.740938 	 0.742625 	  
 0.134708 	 5.012282 	 4.099660 	 0.878188 	 0.743437 	 0.744812 	  
 -4.196138 	 5.339256 	 4.178260 	 0.879000 	 0.741063 	 0.742500 	  
 1.054325 	 5.917751 	 3.486582 	 0.878938 	 0.742938 	 0.744500 	  
 9.456637 	 6.584276 	 2.519805 	 0.877875 	 0.740875 	 0.742625 	  
 13.559544 	 6.785492 	 -0.207606 	 0.880437 	 0.742750 	 0.743500 	  
 10.706373 	 4.748186 	 -1.669561 	 0.877563 	 0.740750 	 0.744250 	  
 5.754589 	 2.094659 	 1.128590 	 0.880313 	 0.742812 	 0.743000 	  
 2.390520 	 2.383906 	 1.482289 	 0.877500 	 0.741063 	 0.744625 	  
 1.109344 	 3.603774 	 4.940678 	 0.880437 	 0.741688 	 0.742625 	  
 4.701353 	 4.056509 	 3.895301 	 0.877437 	 0.741250 	 0.744625 	  
 8.568460 	 4.043933 	 4.091800 	 0.880375 	 0.741250 	 0.742563 	  
 12.411988 	 5.326680 	 4.249000 	 0.877500 	 0.742938 	 0.744688 	  
 12.058289 	 6.295029 	 4.154680 	 0.878875 	 0.741125 	 0.742750 	  
 8.788540 	 6.722612 	 3.730242 	 0.879188 	 0.743500 	 0.744375 	  
 3.349437 	 7.162771 	 6.819212 	 0.877812 	 0.741125 	 0.742750 	  
 3.695276 	 6.760340 	 -0.922863 	 0.880375 	 0.743250 	 0.743563 	  
 10.973612 	 7.225650 	 -1.087923 	 0.877563 	 0.741250 	 0.744500 	  
 17.686031 	 6.596852 	 -4.255493 	 0.880563 	 0.741812 	 0.742688 	  
 17.269452 	 4.647579 	 -0.844264 	 0.877313 	 0.742375 	 0.744750 	  
 11.570971 	 3.063008 	 -5.410909 	 0.880563 	 0.741437 	 0.742625 	  
 5.565950 	 4.119388 	 -2.950737 	 0.877375 	 0.743063 	 0.744688 	  
 0.276187 	 3.968477 	 0.625552 	 0.879313 	 0.741250 	 0.742625 	  
 2.579160 	 2.559969 	 2.425486 	 0.877688 	 0.743188 	 0.744625 	  
 11.193692 	 1.931171 	 3.352963 	 0.878375 	 0.741063 	 0.742437 	  
 17.662451 	 3.779838 	 4.288300 	 0.879938 	 0.742875 	 0.743938 	  
 16.404855 	 5.364408 	 6.779912 	 0.877375 	 0.740938 	 0.743563 	  
 13.119386 	 5.087737 	 7.864588 	 0.880375 	 0.742500 	 0.742750 	  
 8.167602 	 4.521819 	 9.672382 	 0.877188 	 0.741313 	 0.744625 	  
 5.251551 	 4.911674 	 10.277600 	 0.880125 	 0.741313 	 0.742688 	  
 8.175462 	 5.892599 	 8.949265 	 0.877500 	 0.741563 	 0.744500 	  
 12.860006 	 7.011859 	 5.820995 	 0.880250 	 0.741500 	 0.742625 	  
 16.043296 	 8.206575 	 4.272580 	 0.877188 	 0.742625 	 0.744625 	  
 16.648514 	 8.055664 	 6.606992 	 0.880437 	 0.741125 	 0.742563 	  
 14.392701 	 8.055664 	 5.074297 	 0.877313 	 0.742875 	 0.744750 	  
 6.807826 	 7.955056 	 6.897811 	 0.880188 	 0.740875 	 0.742563 	  
 2.249041 	 7.716113 	 5.593055 	 0.877188 	 0.742812 	 0.744563 	  
 6.430547 	 7.590353 	 2.614125 	 0.879062 	 0.740750 	 0.742500 	  
 12.042569 	 7.514897 	 3.329383 	 0.877313 	 0.743000 	 0.744688 	  
 12.655647 	 7.489745 	 -0.970023 	 0.878062 	 0.740750 	 0.742437 	  
 8.985039 	 7.150195 	 -1.339442 	 0.879313 	 0.742750 	 0.743875 	  
 2.854259 	 7.150195 	 -0.364805 	 0.876938 	 0.741063 	 0.743375 	  
 -2.388344 	 8.269455 	 3.470862 	 0.879938 	 0.742437 	 0.742500 	  
 -0.494090 	 9.464171 	 5.993914 	 0.876750 	 0.741437 	 0.744500 	  
 7.617403 	 8.986285 	 8.689885 	 0.879875 	 0.741250 	 0.742437 	  
 13.842503 	 8.948557 	 6.630572 	 0.876812 	 0.742750 	 0.744437 	  
 13.858223 	 8.860525 	 4.233280 	 0.879625 	 0.740750 	 0.742500 	  
 11.122952 	 9.514475 	 2.409766 	 0.876750 	 0.743063 	 0.744500 	  
 5.841049 	 9.514475 	 0.987110 	 0.877875 	 0.740875 	 0.742437 	  
 0.708486 	 8.181423 	 -1.355162 	 0.879750 	 0.742938 	 0.743375 	  
 1.690983 	 6.810644 	 0.468352 	 0.876688 	 0.741063 	 0.744625 	  
 9.495937 	 5.754263 	 2.323306 	 0.880000 	 0.742063 	 0.742500 	  
 18.189069 	 5.741687 	 4.555539 	 0.876812 	 0.741375 	 0.744437 	  
 21.678898 	 6.106390 	 2.724165 	 0.879875 	 0.741750 	 0.742563 	  
 19.454525 	 8.068240 	 1.521589 	 0.877125 	 0.742750 	 0.744500 	  
 11.350891 	 8.785069 	 -0.325505 	 0.880000 	 0.741187 	 0.742500 	  
 5.762449 	 7.037011 	 0.059633 	 0.876875 	 0.743375 	 0.744563 	  
 7.020045 	 5.138041 	 2.032487 	 0.878500 	 0.741250 	 0.742437 	  
 11.107232 	 5.653655 	 4.877798 	 0.877750 	 0.743250 	 0.744375 	  
 12.066149 	 6.596852 	 5.514456 	 0.877750 	 0.741063 	 0.742375 	  
 10.910733 	 7.074739 	 4.327600 	 0.879625 	 0.743063 	 0.743563 	  
 6.917866 	 6.798068 	 7.157190 	 0.876938 	 0.741000 	 0.743875 	  
 0.787085 	 6.798068 	 8.234007 	 0.879625 	 0.742375 	 0.742500 	  
 -1.720246 	 8.407791 	 6.135394 	 0.876938 	 0.741625 	 0.744375 	  
 4.496993 	 9.451595 	 6.064654 	 0.879812 	 0.741625 	 0.742437 	  
 12.026849 	 9.325836 	 6.567692 	 0.876750 	 0.742375 	 0.744563 	  
 15.139399 	 8.935981 	 0.130373 	 0.879812 	 0.741625 	 0.742375 	  
 10.737813 	 8.759917 	 1.238630 	 0.877000 	 0.742812 	 0.744313 	  
 2.374800 	 8.068240 	 0.806331 	 0.879563 	 0.740938 	 0.742375 	  
 -0.234711 	 7.728689 	 0.515512 	 0.876500 	 0.743125 	 0.744375 	  
